0 6689904 5741570 7494738
1 6896818 5791204 7420420
2 7121496 6198832 7532068
3 7293744 6537433 7672983
4 7688387 6470344 7313107
5 7905874 6699141 7316697
6 8089217 7189742 7485106
7 8270398 7437936 7596254
8 8598543 7711217 7626390
9 8734374 7861127 7619953
10 8755851 8088602 7741543
11 8639953 8122247 7930255
12 8499981 7843897 7907324
13 8142427 7432370 7791737
14 8218967 7543775 7724660
15 8161000 7335257 7687829
16 7733478 6970471 7766836
17 7292446 6577861 7720537
18 6550549 6021656 7908473
19 6746442 6000030 7775279
20 6840501 5614325 7252457
21 7048441 5785653 7152463
22 6905504 5769495 7301750
23 6857624 6025268 7701638
24 7255993 6477951 7699962
25 7658932 6780977 7549580
26 8211532 7162536 7473122
27 8447441 7246398 7398973
28 8684398 7603904 7386615
29 8722156 8002382 7735097
30 8673918 7970988 7797066
31 8643241 7955820 7794215
32 8655684 8009290 7734119
33 8520230 7797528 7715806
34 8232661 7468817 7783913
35 7846120 7033472 7655275
36 7472921 6694121 7615984
37 7276319 6517123 7735988
38 6982907 6122483 7683925
39 6655442 5969938 7705285
40 6619623 5811450 7592697
41 6891493 5836096 7466659
42 7062737 5924626 7388692
43 7226047 6433520 7601279
44 7295596 6505717 7648663
45 7733904 6903004 7687709
46 8366359 7351528 7440350
47 8692957 7626039 7338455
48 9016596 7916522 7384074
49 8987310 7887867 7463253
50 8812065 8024358 7637527
51 8695871 7907278 7640145
52 8521916 7836727 7876820
53 8507235 7576965 7535298
54 8459975 7544063 7494417
55 8268363 7246267 7425519
56 7778128 6536040 7283147
57 7432486 6404855 7469166
58 7128897 6269140 7556459
59 6590755 5957450 7854513
60 6710004 5790897 7591098
61 6822833 5906845 7466229
62 7247321 6098258 7249149
63 7403975 6227795 7339546
64 7601596 6580334 7519514
65 7639809 7015747 7789518
66 8002593 7261480 7727413
67 8498582 7482293 7490526
68 8815006 7876670 7497016
69 9039692 8202711 7573425
70 9012875 8219695 7692852
71 8814715 8013236 7750606
72 8660915 7806152 7619157
73 8714592 7751660 7472777
74 8270730 7405549 7723694
75 8034821 7317890 7805088
76 7831672 6870423 7470985
77 7192040 6610962 7898004
78 6935356 6148117 7714442
79 6797395 5756776 7472598
80 6763259 5778926 7426439
81 6886403 5818758 7364699
82 7016120 5860419 7342149
83 7273733 6205362 7339136
84 7423085 6340424 7317793
85 7829535 6562664 7302493
86 8193239 6949765 7269302
87 8535193 7452397 7290045
88 8640264 7660350 7498383
89 8669346 7830580 7704218
90 8777661 7940603 7664336
91 8707490 7944308 7609752
92 8397945 7707837 7828000
93 8152988 7456844 7828263
94 8162536 7350867 7639278
95 8056404 7122639 7532742
96 7636562 6693624 7600223
97 7354002 6719882 7911566
98 7221783 6625503 7792721
99 7109153 6354056 7661779
100 7138452 6160825 7591515
101 7156787 5980182 7266890
102 7195708 6055289 7213161
103 7326064 6186616 7421017
104 7365623 6456542 7567969
105 7588833 6610654 7437895
106 8112274 7138532 7465088
107 8338372 7369424 7558810
108 8668572 7443171 7273628
109 9003303 7829441 7268165
110 8950405 8033793 7549371
111 8698125 7796672 7652766
112 8682177 7770196 7535183
113 8611105 7688832 7553654
114 8251114 7449589 7731217
115 8078333 7176305 7669195
116 7628723 6740066 7576134
117 7277397 6393071 7549844
118 6936031 6043618 7650820
119 6782682 5914444 7649624
120 6597459 5791623 7671551
121 6563474 5760674 7596038
122 6870024 5919703 7600307
123 7017368 6118024 7527803
124 7643017 6439863 7136678
125 8022254 6860224 7321900
126 8423804 7394891 7503041
127 8746076 7682653 7378324
128 9041201 8027905 7374861
129 8936013 8050378 7610325
130 8905152 7828702 7405588
131 9023623 7998349 7424961
132 8657460 7849663 7678943
133 8276280 7603176 7860099
134 8013760 7370663 7823092
135 7908078 7032499 7525159
136 7759972 6709711 7435780
137 7276459 6372696 7650503
138 7192614 6375290 7659869
139 6882893 6161043 7718542
140 6872475 5792169 7453165
141 6928702 5783428 7402939
142 6994398 5924291 7402341
143 7272954 6062470 7228742
144 7713582 6431952 7310565
145 7762626 6760178 7459471
146 8044102 6985118 7365620
147 8224159 7308938 7519288
148 8635804 7446631 7405961
149 8686760 7590906 7383873
150 8822311 7893678 7465155
151 9002266 8063321 7568302
152 8902195 7997117 7628424
153 8732722 8000580 7655319
154 8508197 7976972 7860958
155 8053485 7408915 7872966
156 7606216 7052217 7929167
157 7251031 6710240 7859301
158 6864008 6111993 7768477
159 6723059 5754273 7550776
160 6875200 5766753 7342827
161 6889744 5960590 7514102
162 6935200 5846819 7373948
163 7307800 5996788 7247414
164 7591735 6336199 7098381
165 7856857 6671287 7248243
166 8317505 6918146 7183637
167 8607434 7298743 7186807
168 8852226 7622581 7213673
169 9046111 8037960 7476659
170 9037349 8068587 7591222
171 8941344 8036361 7614773
172 8564583 8210249 8093065
173 8213564 7891999 8168761
174 8015703 7286979 7723225
175 7925504 7086574 7581056
176 7535926 6529292 7432811
177 7193740 6413015 7735127
178 6958620 6015724 7533596
179 7160521 5890792 7196587
180 6701896 5689200 7484392
181 6610436 5499192 7404267
182 6878808 5611185 7216668
183 7300106 6086185 7204314
184 7555048 6464336 7388697
185 8161475 6884168 7221242
186 8543480 7553095 7555264
187 8827533 8088706 7696726
188 9175984 8083451 7437738
189 9415730 8245950 7368607
190 9119749 8087464 7406021
191 8938901 7879410 7469096
192 8517448 8069334 8127204
193 8366438 7825988 7938890
194 8161545 7587031 7835394
195 7993990 7146740 7650636
196 7436568 6421912 7527672
197 7277500 6188716 7394215
198 7097903 6188099 7523737
199 7032909 6110030 7533781
200 7212151 6015412 7364266
201 7094279 6100808 7452891
202 7264163 6238431 7392509
203 7338674 6305989 7492668
204 7643528 6379721 7172134
205 7844431 6786227 7326736
206 8428512 7449210 7550143
207 8674600 7783818 7628325
208 8816924 7790399 7466065
209 8901917 7722687 7210769
210 9003504 7927076 7477392
211 9001835 7864071 7408997
212 8858999 7898426 7527491
213 8304135 7596216 7741712
214 8163214 7390259 7739949
215 7936797 7094793 7670649
216 7384519 6846693 7840799
217 7146677 6386801 7751021
218 7266202 6104292 7410816
219 6943719 6172712 7739654
220 6793606 5946093 7545452
221 6829466 5729592 7370850
222 6984514 5641182 7130718
223 7246155 5901944 7064137
224 7508947 6351747 7279787
225 7814968 6691840 7427243
226 8242757 7227594 7463736
227 8520847 7521333 7399851
228 8755703 7824763 7501108
229 8908904 7917566 7558539
230 8874648 8034594 7598085
231 8818015 8129422 7684256
232 8868354 8001950 7680232
233 8434520 7440576 7602001
234 8095015 7271484 7681245
235 7753395 7227139 7943206
236 7453969 6864806 7941667
237 7242526 6489115 7763980
238 7159242 6385318 7636410
239 7182479 6245175 7534261
240 7029732 6095738 7634305
241 6978682 5968432 7472700
242 6989955 6035311 7442568
243 7282697 6248165 7403120
244 7610277 6346575 7276622
245 7869384 6694836 7267986
246 8292306 7179806 7328590
247 8329984 7416677 7566931
248 8806793 7644689 7296799
249 8988779 7842197 7253569
250 8996140 8052014 7522899
251 9013831 8144423 7702724
252 8948123 8112396 7607322
253 8536206 7686735 7579467
254 8263015 7483309 7735445
255 8015497 7506633 8062879
256 7708149 6975925 7689338
257 7358810 6445086 7546537
258 7012071 6101230 7673277
259 6716032 6042580 7823344
260 6598066 5936290 7775183
261 6634482 6014170 7799363
262 6802385 5819123 7553544
263 7277196 5896180 7080536
264 7741972 6375157 7058316
265 8017257 6842775 7352009
266 8401707 7461950 7552452
267 8675637 7803926 7570419
268 8774027 8060465 7731225
269 9011846 8257813 7802088
270 8969965 8216807 7746535
271 8880237 8134485 7675060
272 8892617 8187662 7750482
273 8816598 7862148 7553136
274 8580288 7781563 7752515
275 7913581 7583655 8150499
276 7338866 7031103 8177521
277 7386280 6609181 7810448
278 7062219 6042103 7466162
279 6912534 5909535 7395334
280 6735817 5867362 7677878
281 7069700 6044117 7497671
282 7256241 6213478 7361349
283 7292920 6277902 7461632
284 7761755 6574520 7354349
285 8182281 7016020 7351733
286 8364647 7195617 7297333
287 8427663 7388240 7480364
288 8912547 7854833 7445052
289 9186475 8161088 7408118
290 9340955 8357258 7433959
291 9406703 8503882 7661749
292 9134183 8324733 7717386
293 8854341 8026509 7591703
294 8404470 7751533 7814407
295 8072665 7298424 7807337
296 7596310 7042380 7948888
297 7278405 6717441 7831930
298 7147924 6333655 7702123
299 7022188 6109457 7632191
300 6806868 5963661 7602606
301 7105995 6087311 7382167
302 7138260 6110831 7528468
303 7380229 6421210 7511234
304 7734236 6623048 7329901
305 7889348 6850328 7397616
306 8595166 7417431 7379636
307 8829347 7660386 7304779
308 8893365 7800449 7350152
309 8877413 8091370 7717200
310 8887051 8126925 7766070
311 8908797 7981902 7499589
312 8764897 8058625 7722148
313 8440442 7786120 7908540
314 7952947 7519788 8077202
315 7995238 7325299 7728260
316 7806760 7011696 7668518
317 7575269 6577339 7557011
318 7293529 6370844 7595483
319 7244901 5986351 7150353
320 7090309 5711875 7123101
321 7153895 5822035 7213893
322 7210813 5941038 7190773
323 7471887 6206676 7159828
324 7769611 6465038 7207699
325 8129445 6876065 7269663
326 8680873 7458593 7167758
327 8844886 7613734 7259113
328 8940139 7624844 7224069
329 9190346 7978660 7246519
330 9312410 8268187 7392477
331 9014967 8168704 7673587
332 8765924 8081416 7835867
333 8557222 7910215 7782101
334 8266871 7522339 7647376
335 8014073 7227980 7689685
336 7632300 6838689 7763964
337 7386767 6713108 7738120
338 7116916 6310942 7605751
339 6817723 5885853 7568479
340 6718135 5686171 7441858
341 6897719 5835881 7347871
342 6902931 5799071 7329113
343 7087778 6018008 7515079
344 7061637 6193400 7596461
345 7592750 6564570 7378638
346 8189085 7219601 7557598
347 8329501 7545210 7743429
348 8823045 8023539 7600879
349 9182624 8196304 7485947
350 9248381 8258095 7598394
351 9113444 8107142 7480996
352 9040574 7770492 7097430
353 8675527 7578517 7435133
354 8374245 7504944 7729391
355 8214864 7355100 7634495
356 7622706 6971780 7767711
357 7209713 6300804 7586299
358 7224180 5980946 7289844
359 6856564 5876412 7392706
360 6856871 5925084 7512575
361 6784809 5947287 7720403
362 7015461 5968677 7435206
363 7224830 6156122 7348228
364 7339948 6253841 7388439
365 7477310 6456647 7485311
366 8105694 6928831 7247781
367 8877730 7710261 7245814
368 9108317 7900995 7312906
369 8990317 7930610 7517227
370 9051175 8138530 7531333
371 8786363 8149944 7830814
372 8861348 8263937 7913717
373 8719375 7933517 7715086
374 8077295 7285881 7615256
375 7773365 6866772 7569693
376 7279071 6303509 7555497
377 7293932 6382475 7594480
378 7194630 6351405 7524245
379 7100105 6143843 7495000
380 7088806 5983404 7433722
381 7166808 5981085 7198749
382 6904655 5718346 7257156
383 6909966 5923442 7573564
384 7395835 6338993 7370081
385 7477340 6722868 7617144
386 7843480 7115979 7685638
387 8404943 7366461 7478068
388 8973898 7800982 7281502
389 9230108 7953718 7172048
390 9270826 8229716 7469019
391 9147824 8050577 7502963
392 8918267 8047379 7604108
393 8609976 7844145 7723620
394 8334614 7592153 7811375
395 8080718 7388925 7792695
396 7476986 6886938 7866452
397 7303471 6653414 7833744
398 7126463 6141325 7553902
399 6843754 5781610 7405478
400 6679178 5809617 7536723
401 6973032 6110469 7659718
402 7114564 6005255 7365727
403 7249139 5991773 7152817
404 7481640 6271018 7166445
405 7830159 6564927 7277460
406 8339647 7186616 7303769
407 8557388 7474992 7284536
408 8866166 7713987 7307823
409 9131099 8108595 7505632
410 9117895 8177041 7531030
411 8967200 8156092 7616722
412 8812333 8101827 7836310
413 8650427 7862545 7772581
414 8268317 7397274 7577500
415 7932224 7227781 7699879
416 7674319 6665137 7554481
417 7419346 6385702 7510718
418 7078963 6169165 7484156
419 7042534 5881927 7390483
420 7021785 5894520 7456609
421 7043315 5948353 7366225
422 7042729 5957687 7256835
423 7296519 6047335 7222357
424 7621090 6346841 7267742
425 7850483 6691673 7235738
426 8276391 7108840 7274610
427 8525834 7343180 7350898
428 8872381 7600664 7214813
429 9026801 7814904 7206424
430 9048179 8065838 7546801
431 8946786 7972631 7534525
432 9065258 8021829 7389704
433 8982999 7907372 7335918
434 8614102 7367710 7241229
435 8243185 6805331 7116657
436 7858322 6439080 7038368
437 7503946 6013700 6974724
438 7484725 5766647 6950932
439 7378756 5737742 6872225
440 7464122 5936283 6910880
441 7529908 6081695 7023714
442 7649921 6189602 7100490
443 7807854 6392324 7026258
444 8228249 6937256 7126381
445 8498228 7351264 7367847
446 8991152 8129248 7642459
447 9349529 8665659 7690346
448 9728525 9334190 8060725
449 9957813 9822901 8389356
450 10272325 10433698 8631102
451 10359959 10792396 8879823
452 10470159 11159600 9147770
453 10537570 11281102 9266393
454 10036283 10950948 9411201
455 9566320 10440557 9273751
456 9071746 9990768 9422955
457 8844178 9893941 9553734
458 9074196 10048378 9373237
459 8735866 9965654 9691698
460 8472000 9847903 9967145
461 8390067 9934155 10043217
462 8287901 9793783 9879581
463 8157513 9594522 9921226
464 8189237 9524563 9911697
465 8146172 9411409 9752294
466 8560512 9581712 9379942
467 9086310 9722565 9145627
468 9102655 9815779 9278990
469 8992732 9827936 9206027
470 8507989 9478224 9490290
471 7816580 9070586 9771414
472 7907208 9189905 9771713
473 7922168 9183217 9629125
474 7538750 8822428 9785844
475 7430399 8774517 9899332
476 7159369 8493108 9736696
477 6967876 8132221 9581347
478 6704579 7357647 9215815
479 6372767 6747809 8837199
480 6320173 6435547 8558525
481 6468202 6693003 8650374
482 6653638 6609649 8520479
483 7018307 7017501 8441489
484 7471983 7360669 8242621
485 7354750 7211905 8376738
486 7900174 7831175 8462773
487 8364238 8420755 8500020
488 8446039 8718131 8663322
489 8724549 9023809 8821757
490 8874171 9309418 8946424
491 8938497 9394479 8874799
492 8926844 9447135 8946363
493 8852089 9131974 8793347
494 8277774 8435970 8656051
495 7867092 8070573 8592655
496 7581270 7627790 8526122
497 7628473 7183355 8116212
498 7211570 7023192 8261820
499 6967632 6966033 8374496
500 6906341 6757517 8378821
501 7047202 6628855 8069634
502 7293287 6495072 7575330
503 7506465 6572614 7453885
504 7763392 6855202 7663809
505 7954493 7245963 7804710
506 8431113 7822543 7792720
507 8697602 8245235 8091713
508 8867461 8457015 8142568
509 9078118 8508699 7920775
510 9147688 8462464 7690390
511 9039200 8205129 7677394
512 9077829 8052750 7525248
513 8923320 8033126 7552192
514 8461866 7797102 7818333
515 7977682 7482657 8030009
516 7812820 7232736 7925930
517 7435455 6912949 7885956
518 7269509 6589675 7828481
519 7201216 6404557 7704259
520 6877583 6088117 7689764
521 7018872 6222498 7589691
522 7282799 6227648 7421432
523 7426113 6487760 7558467
524 7778984 6755114 7451666
525 8084550 7138153 7486495
526 8743187 7735097 7552577
527 8955786 7989643 7532110
528 9271848 8324491 7460894
529 9449813 8422489 7483855
530 9336407 8566754 7768062
531 9114064 8498843 7895016
532 9159158 8648043 7973103
533 8763919 8078974 7825375
534 8793176 7793332 7529117
535 8334699 7550086 7712948
536 8016946 7335974 7720405
537 7876856 6973887 7717869
538 7340710 6629095 7775875
539 7130616 6181653 7469860
540 7059279 5899496 7292689
541 7001906 6094374 7614569
542 7293341 6357743 7448818
543 7668544 6644815 7424323
544 8014692 6798357 7256672
545 8114448 6974257 7391871
546 8760610 7707990 7359645
547 8969400 8176000 7618792
548 9124392 8137984 7553896
549 9395696 8368713 7453677
550 9496127 8587144 7540496
551 9312259 8327643 7508726
552 9218709 8310222 7660365
553 9090140 8271695 7677679
554 8802186 8194049 7826984
555 8472126 7819378 7852097
556 8127714 7176909 7626361
557 7980339 7147485 7633204
558 7680602 6811885 7589261
559 7291284 6359751 7575191
560 7044753 6167577 7606399
561 7104037 6343846 7655963
562 7253430 6404699 7564575
563 7409005 6498770 7626340
564 7686489 6838000 7639932
565 7840960 7174668 7693043
566 8643818 7688248 7549413
567 8926316 7975161 7576752
568 9177295 8287320 7508259
569 9370798 8584271 7645594
570 9305690 8657538 7931887
571 9218351 8523540 7872425
572 9310249 8642436 7738989
573 9151541 8533727 7836691
574 8816668 8110852 7861773
575 8642497 7807927 7703540
576 8131023 7344533 7648312
577 7828211 7024629 7713408
578 7571547 6871195 7830102
579 7218658 6463361 7705042
580 7138800 6276114 7557876
581 7423369 6416235 7487575
582 7437734 6412790 7434096
583 7788325 6789059 7424935
584 7987235 7137881 7615691
585 8193009 7184200 7551407
586 8630621 7708747 7543634
587 8992743 8052593 7440478
588 9372515 8327830 7437752
589 9691387 8532962 7393294
590 9660628 8748717 7549861
591 9490808 8793543 7744973
592 9302961 8606546 7908653
593 9024483 8303258 7790287
594 9017136 8053378 7468347
595 8771182 7972212 7687338
596 8291130 7393325 7708212
597 7884963 7200163 7790347
598 7664428 7065089 7843921
599 7488457 6800861 7824890
600 7442980 6529021 7675786
601 7404050 6547614 7614242
602 7467616 6686403 7637274
603 7698121 6767649 7572501
604 8056315 7032255 7496399
605 8480709 7506098 7393332
606 9201229 8055290 7285390
607 9387635 8299953 7447082
608 9592801 8622504 7514702
609 9650261 8973319 7747100
610 9628170 9030724 7894613
611 9497502 9019259 8100000
612 9347024 8962095 8002094
613 9395708 8806547 7854343
614 9130373 8527432 7924905
615 8976412 8101993 7655192
616 8576912 7687850 7544154
617 8139103 7352568 7709329
618 7949357 7068956 7686665
619 7689662 6765721 7558572
620 7498600 6633447 7603241
621 7689055 6826899 7641966
622 7958818 6827811 7375913
623 8364798 7285213 7332837
624 8405073 7566372 7565229
625 8643569 7669414 7569072
626 9181708 8260603 7588213
627 9463447 8712412 7630530
628 9730724 8906465 7637066
629 9798838 9007270 7759197
630 9654410 9095997 7868645
631 9626805 9087839 7885082
632 9815372 9281569 7940056
633 9628402 8825973 7750212
634 9313626 8650760 7820683
635 9100660 8576318 7900321
636 8516698 7929314 7939459
637 8314743 7621397 7800622
638 8053733 7458798 7847903
639 7881811 7349101 7935619
640 8056508 7479551 7945019
641 8155977 7456108 7804996
642 7901536 7308727 7794469
643 8005400 7424109 7892604
644 8413513 7694960 7801073
645 8778620 8081638 7693451
646 9343368 8473753 7592480
647 9652474 8557891 7418091
648 9783967 8788628 7526372
649 9969366 9506762 7955658
650 9953836 9669874 8208650
651 9999391 9821541 8362107
652 9943823 9762109 8275559
653 9829069 9533641 8094728
654 9353176 8961058 8077107
655 9103601 8491575 7892711
656 8732987 8145159 7818816
657 8649763 8112033 7926270
658 8476878 7890622 7961158
659 8309127 7719682 7896450
660 8252477 7584143 7734961
661 8303532 7623111 7793888
662 8146333 7588077 7976191
663 8464823 7704592 7687049
664 8797282 7995412 7574868
665 9237670 8348407 7625910
666 9617875 8874201 7788800
667 10019339 9384459 7782359
668 10278320 9568428 7766417
669 10432645 9779215 7890596
670 10429848 9833350 7896884
671 10387223 9814649 7787317
672 10330673 9798539 7964823
673 9971578 9687080 8282502
674 9550355 9446971 8339191
675 9525743 8950859 7882517
676 9084786 8392130 7895161
677 8876111 8234132 7897196
678 8663258 8024280 7812951
679 8369550 7742194 7792129
680 8358266 7571780 7738934
681 8321797 7519999 7723264
682 8435321 7587059 7582436
683 8542581 7733812 7709639
684 8725905 8016215 7822172
685 9188818 8492565 7780487
686 9491734 8865255 7767132
687 9745460 8988554 7704012
688 10159393 9373546 7721584
689 10524748 9949096 7889984
690 10500143 10240785 8204290
691 10528515 10017094 8067152
692 10474921 10097652 8177060
693 10034102 9854643 8272173
694 9669838 9417479 8183070
695 9534548 9128773 8141763
696 9217195 8668786 7990277
697 8737751 8361114 8077110
698 8234791 7981701 8240915
699 7965148 7550132 8115254
700 7834195 7538700 8134228
701 7896505 7475299 7960828
702 8281782 7575768 7729086
703 8674929 7687266 7508710
704 8725448 7795759 7525642
705 8989346 8128962 7526303
706 9543422 8532469 7511578
707 9717981 8757498 7589176
708 10012246 9327553 7713250
709 10282930 9777606 8061987
710 10208448 9693261 8047899
711 9959569 9405228 7892044
712 9917811 9432630 7951721
713 9782448 9489476 8267101
714 9592323 9079504 8008566
715 9247923 8626268 7865144
716 8569483 8015003 7949488
717 8238422 7478542 7821692
718 7981711 7024652 7552569
719 7751658 6899510 7576199
720 7634060 6965432 7828335
721 7653742 6907018 7777286
722 7644158 6788351 7584969
723 7867933 7113130 7647885
724 8002598 7226034 7708384
725 8375219 7421333 7535722
726 8789725 7886648 7463332
727 8975874 8183188 7640104
728 9269058 8393315 7622385
729 9534364 8653346 7610780
730 9505094 8833547 7729578
731 9365456 8726220 7893983
732 9404605 8703295 7845661
733 9131517 8479696 7855676
734 8773814 8127465 7797054
735 8543190 7769231 7776241
736 8224338 7406291 7767860
737 7997207 7190025 7624935
738 7710554 6976055 7765195
739 7309612 6640727 7872304
740 7083499 6328348 7732720
741 7239165 6349333 7532171
742 7381916 6392330 7519928
743 7585083 6655545 7617725
744 7828887 6873524 7500236
745 8073520 7115076 7425020
746 8600503 7603870 7497737
747 8862467 7887688 7488845
748 9036826 8213757 7566390
749 9431653 8596648 7570992
750 9304136 8572479 7796385
751 9112749 8530906 7894087
752 9225516 8608164 7786503
753 9166486 8362814 7692071
754 8892825 8021103 7707197
755 8526509 7847894 7798934
756 7921722 7194059 7782508
757 7650738 6924382 7804095
758 7552524 6679661 7677095
759 7259427 6413067 7558917
760 7195765 6270027 7557400
761 7160717 6038804 7451815
762 7282812 6126127 7286294
763 7487025 6525408 7374004
764 7831732 6886383 7515934
765 8142427 7084848 7476304
766 8409146 7627924 7625914
767 8520990 7961162 7793236
768 8989230 8222395 7753160
769 9189508 8535113 7853534
770 9244880 8579601 7726011
771 9298787 8384611 7529407
772 9184048 8523009 7885670
773 8858338 8276041 7893343
774 8458368 7915584 7897269
775 8381864 7668742 7768614
776 8005339 7083393 7614904
777 7651206 6970628 7791129
778 7490073 6684491 7580232
779 7383390 6266119 7447931
780 7244803 6118580 7420204
781 7242352 6286075 7387955
782 7221703 6185894 7481684
783 7439916 6545225 7617298
784 7836530 6787455 7409669
785 8050221 7113594 7468054
786 8607229 7628777 7528867
787 8790072 7855819 7604769
788 9107556 7987615 7299132
789 9247848 8255989 7471666
790 9333770 8343312 7540774
791 9032895 8213134 7720212
792 9046529 8421785 7852268
793 8930986 8277146 7822126
794 8663960 7999122 7865565
795 8593881 7914243 7819291
796 8208279 7592571 7865176
797 7971184 7200888 7726838
798 7697981 6877260 7770698
799 6991498 6369655 7871434
800 6992135 6280930 7751075
801 7243159 6463800 7740222
802 7360272 6359936 7487775
803 7437122 6319868 7274970
804 7678307 6506699 7300021
805 8017660 7028886 7538697
806 8722312 7801103 7578644
807 8876366 8104913 7574926
808 9236137 8249088 7497355
809 9252940 8268489 7535111
810 9206899 8325316 7599582
811 9260544 8672797 7844031
812 8975097 8439604 7975119
813 8858649 8103358 7787338
814 8770516 8228401 7879607
815 8254741 7827733 8053626
816 7676593 7078530 7925720
817 7792549 6912114 7593454
818 7594532 6640538 7437491
819 7232338 6215938 7588849
820 6838028 6212611 7928229
821 6974872 6371076 7875192
822 7347649 6630619 7619676
823 7662647 6713556 7550465
824 7918571 6739019 7324197
825 8325822 6761294 6827195
826 8771908 7454247 7165004
827 8925547 7877759 7483689
828 9300070 8295098 7478902
829 9317726 8346539 7419766
830 9427433 8427806 7486750
831 9516280 8463293 7477784
832 9198025 8303140 7545870
833 8666881 8227699 7999118
834 8418896 8028924 8146918
835 8352056 7674585 7842855
836 8001232 7114910 7488919
837 7733521 6760659 7482778
838 7402518 6396209 7521180
839 7161373 6118568 7403880
840 7168800 6233538 7456664
841 7024878 6325527 7728617
842 7157657 6242976 7657540
843 7425559 6539954 7533401
844 7765991 6940211 7608392
845 7972903 7164676 7746967
846 8460914 7551371 7575714
847 8726200 7737181 7497058
848 8935250 8150948 7722534
849 9181214 8508928 7944057
850 9000629 8448354 7951028
851 9206029 8385320 7600725
852 9103294 8352139 7745378
853 8939372 8232584 7860689
854 8688713 8026913 7768660
855 8515046 8017796 7928597
856 8278561 7442897 7717589
857 7868850 7113445 7720940
858 7683968 6824118 7567389
859 7305929 6467457 7628604
860 7113930 6301123 7719983
861 7216948 6278491 7512678
862 7167807 6441483 7717520
863 7266353 6622965 7806307
864 7603332 6542806 7466731
865 8050604 6858975 7268142
866 8503131 7432686 7314449
867 8992347 7961858 7431597
868 9332731 8271018 7509737
869 9346798 8564472 7674615
870 9341660 8533073 7591067
871 9215346 8428773 7795782
872 9340475 8716822 7938008
873 8999240 8448738 7932008
874 8745832 8186300 7935820
875 8632816 7763516 7736200
876 8262034 7325787 7573530
877 7855994 7012516 7578193
878 7424644 6624414 7747489
879 7239457 6491099 7743591
880 7237092 6405320 7606035
881 7329415 6510058 7561996
882 7351887 6309285 7490538
883 7456554 6468516 7512661
884 7814678 6861593 7375397
885 8294623 7230727 7354378
886 8781746 7670156 7406253
887 9125917 7992842 7366241
888 8989020 8194341 7606909
889 9335726 8351887 7534383
890 9580700 8630030 7598341
891 9404440 8712039 7799908
892 9264554 8744556 7906649
893 9034789 8490771 8085604
894 8641966 8041172 7921284
895 8474046 7802251 7770035
896 7849710 7212120 7885232
897 7434065 6855836 7993929
898 7293264 6457475 7644082
899 7115879 6266214 7588473
900 7326683 6231096 7437322
901 7381053 6337118 7483713
902 7471246 6502573 7464761
903 7587383 6837427 7632750
904 7779697 6880263 7601361
905 8081635 7113689 7508240
906 8652655 7709405 7459524
907 8835544 8043145 7687077
908 9130868 8364609 7750681
909 9376114 8584393 7660948
910 9176057 8582857 7817959
911 9115414 8500663 7856505
912 9080180 8298860 7783178
913 8840037 8303189 7954293
914 8453858 8025992 7964775
915 8206729 7792763 8128596
916 8033283 7361523 7785280
917 7936036 6960157 7494784
918 7591518 6818498 7724180
919 7445483 6419097 7560324
920 7374856 6406214 7499486
921 7368888 6417024 7466729
922 7201524 6236638 7499764
923 7538882 6608619 7557768
924 7788080 6977966 7651087
925 7944150 7141763 7580277
926 8562680 7536129 7476828
927 8830116 7692172 7341125
928 8816521 7868591 7424204
929 9074383 8243109 7616188
930 9052321 8369930 7816625
931 9223513 8494078 7733634
932 9541665 9072999 7935071
933 9382164 9039809 8172312
934 9145889 8663271 8086959
935 8694001 7884814 7631902
936 8152012 7334693 7570193
937 7816357 7094910 7792318
938 7559792 6847115 7843293
939 7217032 6374264 7608715
940 7259001 6314613 7507999
941 7199455 6264218 7578720
942 7222884 6250656 7567314
943 7441851 6387755 7323176
944 7817267 6588668 7274896
945 8011373 6829784 7375812
946 8427527 7470747 7487635
947 8779265 7950956 7583484
948 8951038 8126192 7683023
949 9355396 8438111 7628394
950 9407032 8633133 7572972
951 9433949 8596673 7578868
952 9145285 8474113 7875612
953 8856422 8269765 7892122
954 8636821 8259291 8066007
955 8355177 7937043 8101609
956 7812584 7292542 8045591
957 7551487 7030617 7914723
958 7552515 7002509 7856327
959 7305043 6527602 7713637
960 7206297 6314811 7678450
961 7038643 6214290 7657306
962 7037016 6266902 7599475
963 7626864 6531167 7414296
964 8052746 6781417 7222039
965 8388935 7158090 7194643
966 8647886 7642196 7435900
967 8838523 7799345 7508337
968 9184935 8306769 7646362
969 9314543 8615509 7720243
970 9308883 8672127 7792468
971 9753597 8767242 7500310
972 9523814 8725799 7659812
973 9073533 8171250 7553154
974 8804390 7908121 7613806
975 8676099 8073965 7981381
976 7960238 7541774 7996863
977 7865962 7023701 7596079
978 7526315 6519545 7538660
979 7215512 6259872 7525629
980 7266534 6370080 7533742
981 7288142 6432169 7594737
982 7391581 6287412 7413187
983 7805460 6742858 7388036
984 7941874 6988354 7488601
985 7980614 7039422 7548316
986 8374799 7348497 7519536
987 8792825 7734254 7322536
988 9404735 8188304 7268001
989 9640375 8592924 7493390
990 9717970 8675961 7475428
991 9497882 8651630 7590933
992 9386117 8609298 7733084
993 9250696 8278837 7594237
994 8929082 8044003 7599599
995 8408133 7835908 7877642
996 7785557 7226165 7982560
997 7558707 6966859 7913875
998 7448112 6827877 7799638
999 7278366 6550219 7702559
1000 7242439 6399237 7636448
1001 7246447 6337834 7552891
1002 7477017 6597605 7538441
1003 7616244 6851306 7713176
1004 7731212 7079966 7862801
1005 8006498 7213138 7657643
1006 8460449 7588315 7536670
1007 8723315 7654639 7418278
1008 9023013 7899207 7389069
1009 9288428 8399560 7558071
1010 9403705 8552175 7548295
1011 9452522 8576804 7688786
1012 9261260 8611682 7861346
1013 9139096 8485991 7788023
1014 8671508 8060885 7868692
1015 8348535 7528559 7806638
1016 7881006 7164046 7784558
1017 7852289 7097640 7642055
1018 7574657 6541973 7523302
1019 7199878 6092172 7469764
1020 7119184 6165073 7440415
1021 7313622 6358887 7451365
1022 7412691 6583677 7629594
1023 7812578 6878568 7537735
1024 8032735 7191075 7569191
1025 8220767 7235038 7433419
1026 8661257 7600535 7410977
1027 8877747 7728323 7375439
1028 9150819 8090556 7352393
1029 9354307 8512521 7699810
1030 9198595 8533544 7889028
1031 9222220 8506578 7760618
1032 9291674 8587774 7746714
1033 9130739 8413240 7884197
1034 8846073 8314266 8009855
1035 8633201 8014691 7851420
1036 7938277 7477861 8085906
1037 7737354 7075631 7861726
1038 7489360 6707466 7780792
1039 7176921 6404424 7695179
1040 7170704 6303033 7676212
1041 7013677 6044861 7580577
1042 7223862 6101084 7290964
1043 7731905 6643151 7332512
1044 8287221 7096987 7316513
1045 8460059 7283117 7377518
1046 8671920 7784884 7459716
1047 8787445 7941313 7620138
1048 8934717 8189782 7775772
1049 9507867 8640213 7567012
1050 9709510 8708775 7396063
1051 9462275 8426974 7482287
1052 9166876 8267807 7673565
1053 9005264 8355383 7813353
1054 8653263 8195292 7964313
1055 8399967 8067990 8266172
1056 7817990 7530191 8246243
1057 7679750 7207458 7884354
1058 7709077 6986471 7725865
1059 7590987 6531029 7475552
1060 7424681 6447656 7509049
1061 7427959 6292307 7305892
1062 7208883 6109507 7410722
1063 7736438 6435500 7259466
1064 7831158 6720374 7333579
1065 8026636 7117882 7480537
1066 8605407 7679423 7517544
1067 8979056 8010282 7582442
1068 9186246 8344235 7568417
1069 9325395 8545066 7648784
1070 9445560 8620716 7682627
1071 9361504 8665900 7798760
1072 9265542 8639165 7797168
1073 9160144 8348993 7691819
1074 8955301 8199758 7796816
1075 8756833 8076739 7726916
1076 8411172 7574733 7648582
1077 7968857 7181297 7674880
1078 7535673 6754585 7802731
1079 7153836 6471062 7785265
1080 7279837 6489800 7671840
1081 7284064 6378905 7642569
1082 7014520 6161305 7693666
1083 7129646 6661321 7923224
1084 7697877 6906225 7616862
1085 8270612 7155223 7404931
1086 8668148 7707951 7518498
1087 8925850 7951487 7475525
1088 9094535 8073030 7486134
1089 9292328 8302459 7508251
1090 9329463 8461080 7520212
1091 9537915 8716639 7586017
1092 9386350 8531622 7743678
1093 9061884 8337454 7776451
1094 8783739 8133892 7696758
1095 8456419 7810069 7862876
1096 7993557 7337331 7962778
1097 7821952 7302249 7935847
1098 7622435 7103619 7860148
1099 7251524 6693311 7959841
1100 7382759 6706469 7833554
1101 7563285 6830778 7688411
1102 7299620 6610738 7704342
1103 7495745 6509344 7501580
1104 7983592 6866195 7418938
1105 8116375 7154205 7442306
1106 8530459 7713161 7608139
1107 8898616 8171399 7834625
1108 9085676 8394907 7783973
1109 9381205 8814578 7830212
1110 9262878 8758304 7917334
1111 9461081 8875473 7956906
1112 9452747 9087604 8045676
1113 9161995 8673843 7954067
1114 8850126 8120036 7827435
1115 8551780 7841876 7740442
1116 8223198 7598445 7875292
1117 8014987 7706124 8158277
1118 7676002 7407940 8272331
1119 7316315 6667106 7737421
1120 7465773 6450975 7374375
1121 7467696 6343144 7413074
1122 7364924 6372413 7542577
1123 7596960 6832001 7673689
1124 8034081 7145783 7533461
1125 8224990 7222816 7564171
1126 8639404 7518692 7400179
1127 8899857 7832333 7380068
1128 9058880 8175565 7557963
1129 9465296 8496226 7583055
1130 9631754 8737515 7573002
1131 9571184 8784967 7648574
1132 9546116 8790055 7763164
1133 9336805 8585094 7794199
1134 9038735 8427344 7818923
1135 8971642 8181142 7661288
1136 8503650 7653267 7718063
1137 7843726 7196518 7891782
1138 7645939 6947813 7730805
1139 7494374 6655055 7606667
1140 7555485 6636778 7619161
1141 7482092 6766259 7717697
1142 7557195 6841468 7672223
1143 7830984 6915170 7601248
1144 7901059 7123777 7738218
1145 8272887 7378218 7518910
1146 8674515 7827384 7541948
1147 8858223 8038945 7739983
1148 9132395 8415904 7759858
1149 9482975 8911389 7852163
1150 9547789 8757205 7686223
1151 9678239 8596508 7480848
1152 9484198 8413732 7404189
1153 9205857 8307101 7556764
1154 8857845 8131814 7799875
1155 8607088 8138250 8049103
1156 8096871 7545202 7953469
1157 7895393 7279453 7751132
1158 7736419 6845028 7667018
1159 7393629 6330113 7461339
1160 7432729 6410347 7432495
1161 7158252 6513680 7790780
1162 7495662 6384585 7396764
1163 7795306 6725775 7425800
1164 8015022 7217970 7616641
1165 8336111 7437028 7517802
1166 8839739 7575512 7244197
1167 9101551 8025126 7334858
1168 9256444 8321987 7498631
1169 9259865 8484790 7803221
1170 9241387 8592394 7861418
1171 9279439 8785986 7875162
1172 9359325 8781305 7933890
1173 8944797 8497081 8163712
1174 8805123 8261518 7933658
1175 8556307 8034009 7916440
1176 8092347 7305367 7692187
1177 7933093 6848078 7514218
1178 7590690 6738700 7599677
1179 7403289 6412540 7428502
1180 7355259 6393812 7594517
1181 7589225 6605188 7547923
1182 7504437 6470177 7402635
1183 7399082 6352303 7421394
1184 7818223 6670963 7420441
1185 7914886 6794325 7358022
1186 8454789 7369499 7254180
1187 8722445 7697450 7484563
1188 8975847 7992834 7557020
1189 9268272 8320800 7492053
1190 9444661 8699905 7660106
1191 9445595 8735902 7812184
1192 9246192 8673297 7932017
1193 9014990 8435619 7858700
1194 8406491 8183598 8330891
1195 8278824 7942281 8214277
1196 8075203 7440348 7884772
1197 7922843 7204769 7706471
1198 7487725 6682819 7718378
1199 7321098 6350188 7571817
1200 7459909 6470558 7492035
1201 7106857 6181090 7517250
1202 7275766 6211809 7459641
1203 7675349 6618462 7427910
1204 7818112 6842600 7438715
1205 8007246 7055028 7471638
1206 8771242 7698538 7415060
1207 9140129 8085486 7422047
1208 9160661 8420552 7659751
1209 9303636 8715135 7910112
1210 9379379 8698467 7842856
1211 9365109 8791878 7858672
1212 9245744 8797505 7993142
1213 9018833 8378603 7912823
1214 8807301 8259755 7968846
1215 8457745 8027777 8004032
1216 7858343 7539384 8073289
1217 7674836 7010972 7885723
1218 7438455 6584741 7660382
1219 7205955 6480194 7669747
1220 7180587 6374210 7725628
1221 7125910 6314707 7684877
1222 7249033 6364174 7555201
1223 7564337 6730825 7614248
1224 7644110 6819120 7718132
1225 7821274 6979713 7652284
1226 8229232 7591578 7788180
1227 8397050 7963775 7955975
1228 8915851 8305894 7885897
1229 9471557 8640512 7669842
1230 9362627 8663012 7740682
1231 9267890 8666913 7878272
1232 9124069 8483429 7904288
1233 9013795 8468941 7903478
1234 8877943 8312466 7844528
1235 8617173 7748200 7642877
1236 7999951 7155258 7702364
1237 7637532 7138666 7935037
1238 7395582 6995534 8010117
1239 7214145 6531318 7922211
1240 7532984 6469689 7445401
1241 7309123 6383251 7507356
1242 7207226 6229300 7509705
1243 7380137 6440106 7634618
1244 7757850 6939335 7619822
1245 7955162 7163365 7615146
1246 8382835 7649172 7805237
1247 8715767 8029759 7855853
1248 8950542 8472528 7934971
1249 9220168 8712166 7941865
1250 9263623 8810498 8062010
1251 9432771 8893326 7944306
1252 9396681 8842490 7859120
1253 9095084 8501287 7938801
1254 8671639 8099826 8010883
1255 8592243 7945354 7773501
1256 8211382 7537930 7720563
1257 8037121 7138546 7636734
1258 7619284 6739515 7697482
1259 7229669 6230364 7472185
1260 7332316 6167966 7243800
1261 7319978 6085246 7349168
1262 7359824 6111586 7248960
1263 7764311 6594110 7235213
1264 8053490 6792929 7255827
1265 8135152 6776047 7214179
1266 8874859 7282621 6855421
1267 9180640 7580423 6865083
1268 9361298 7950579 7082195
1269 9676881 8303514 7153377
1270 9761935 8449196 7130230
1271 9815848 8524875 7208433
1272 9707438 8386604 7260936
1273 9658128 8239701 7050899
1274 9443631 8234731 7295646
1275 9152237 8150356 7499819
1276 8728005 7865983 7694394
1277 8307430 7632207 7796742
1278 8013835 7451280 7853960
1279 7787870 7393649 8122520
1280 7930987 7658019 8215684
1281 8262415 8027707 8195289
1282 8489649 8530340 8455406
1283 9231345 9409510 8734857
1284 9293803 9832744 9040140
1285 9360174 10243692 9238752
1286 9734727 10591680 9374952
1287 9996190 10771305 9337622
1288 10307753 11232157 9399554
1289 10721202 11928676 9640269
1290 10928062 12143481 9724500
1291 11047023 12545632 10045591
1292 10963358 12753844 10227929
1293 10484725 12367240 10334069
1294 9914872 11806111 10380048
1295 9335178 11115521 10313040
1296 8691149 10238352 9930300
1297 8186669 9448279 9750505
1298 7911144 8886851 9491500
1299 7588452 8376182 9260763
1300 7260570 8089616 9201648
1301 7082514 7839364 9208786
1302 7092905 7807587 9225653
1303 7180423 7874941 9131424
1304 7260813 7736242 8917540
1305 6937587 7697813 9301191
1306 7409758 8247404 9347643
1307 7785404 8827252 9480737
1308 8423787 9325722 9274066
1309 8913163 9612916 9240384
1310 9035255 9579447 9073141
1311 8500761 9582269 9495678
1312 8485834 9355697 9370127
1313 8398917 8941219 9048850
1314 8014508 8570135 8981728
1315 7932794 8680735 9163977
1316 7579807 8104512 9073631
1317 7468948 7813923 8853055
1318 7332143 7733185 8821449
1319 6869992 7203859 8806017
1320 6945515 7144512 8763172
1321 6950396 7272651 8765639
1322 7032435 7187207 8504397
1323 7465716 7380795 8455184
1324 7647742 7910055 8814356
1325 8011723 8325700 8695270
1326 8561188 8929499 8799290
1327 9095300 9105098 8533777
1328 9279234 9231549 8516877
1329 9349667 9515830 8534205
1330 9336489 9530489 8745681
1331 9255142 9449982 8790746
1332 9248197 9355460 8562714
1333 8963346 9192435 8684627
1334 8544372 8864694 8845008
1335 8368239 8616881 8798977
1336 7923370 7907787 8421309
1337 7765125 7639566 8328720
1338 7735623 7458435 8275073
1339 7545022 7142551 8189160
1340 7270023 6944865 8117259
1341 7167453 6854313 8131758
1342 7425882 7074095 8147257
1343 7725595 7298046 8003602
1344 8038364 7661075 8019835
1345 8272675 7644598 7825107
1346 8788135 8066058 7827091
1347 9105793 8479042 7808481
1348 9172641 8533559 7800056
1349 9443693 8889810 7939432
1350 9528698 8904780 7903906
1351 9265710 8836350 8017982
1352 9470072 9170255 8150303
1353 9250314 9164523 8470999
1354 8929368 8837271 8386260
1355 8644433 8384798 8165485
1356 8045323 7639616 8090439
1357 7784249 7271804 8023451
1358 7564473 7146750 8044313
1359 7375392 6985759 8059763
1360 7254739 6802488 8094065
1361 7375519 6795511 7876103
1362 7370511 6809833 7804878
1363 7458296 6950926 7980804
1364 7809681 7315074 8046499
1365 8166482 7550140 7825509
1366 8690951 8046719 7747497
1367 8861003 8252883 7847700
1368 9146297 8494204 7829068
1369 9414296 8746365 7730425
1370 9550464 8968336 7793722
1371 9614924 9043963 7950677
1372 9476289 8999156 8087392
1373 9142161 8725030 8061385
1374 8659807 8383171 8192486
1375 8650558 8231261 8117942
1376 8189458 7778306 8100928
1377 7965830 7750299 8211845
1378 7769983 7631065 8379458
1379 7585127 7209495 8147377
1380 7697346 7022412 7838796
1381 7475342 7057083 7979465
1382 7550820 6728892 7700662
1383 7848300 7001202 7652131
1384 8007165 7535595 8017291
1385 8170966 7663891 7967428
1386 8682352 8106368 7938332
1387 9037442 8395543 7821123
1388 9236297 8777537 7886689
1389 9360348 8853103 7967168
1390 9627171 8917820 7866386
1391 9736207 9139124 7896379
1392 9553666 9211382 8069697
1393 9197544 8889608 8246969
1394 9131348 8709848 8125522
1395 8816218 8519601 8143223
1396 8172143 7932741 8194438
1397 7909934 7617775 8221858
1398 7800931 7492517 8153749
1399 7465152 7113202 8056408
1400 7439263 6887016 7881877
1401 7610164 6927185 7911820
1402 7652806 7068611 7880356
1403 7926381 7416515 7939351
1404 8000625 7490370 8020952
1405 8414368 7952132 8041908
1406 8934794 8548580 7982160
1407 9038189 8561506 7938932
1408 9141870 8515596 7926959
1409 9319651 9032800 8233736
1410 9243567 9162956 8293130
1411 9559288 9403203 8235505
1412 9675699 9341092 8237899
1413 9293699 9196690 8300199
1414 9384206 9143610 8169275
1415 9008449 8760173 8216212
1416 8308864 8029776 8260006
1417 8119824 7728005 8105813
1418 7702669 7587120 8307025
1419 7479835 7251593 8287195
1420 7532310 7165140 8114954
1421 7599873 7190982 8025738
1422 7550760 7118104 7993093
1423 7953053 7323266 7939474
1424 8071351 7681594 8074427
1425 8400647 8003964 7976739
1426 9100895 8520631 7867724
1427 9266174 8568333 7858198
1428 9421796 9030487 8043859
1429 9710462 9282659 8009096
1430 9776984 9296977 8094384
1431 9648559 9406639 8271870
1432 9551457 9453356 8265291
1433 9379719 9110854 8249339
1434 9253923 9054597 8295382
1435 9079066 8925696 8332106
1436 8550365 8432647 8304223
1437 8243406 7913534 8196776
1438 8057713 7669641 8206845
1439 7632844 7499212 8363384
1440 7854554 7701593 8219003
1441 7903497 7561353 8181784
1442 7801180 7497517 8177160
1443 8051764 7793492 8167471
1444 8246336 8091021 8304515
1445 8506042 8256717 8258534
1446 9076446 8574880 8028441
1447 9412720 8855816 7839936
1448 9731977 9246028 8021370
1449 9981655 9659322 8239807
1450 10065519 9966210 8343836
1451 9979825 9935511 8417080
1452 9940438 9903249 8485286
1453 9817178 9455910 8168161
1454 9492138 9274664 8216790
1455 9192699 9001983 8346918
1456 8521227 8474684 8528220
1457 8225609 8461754 8720033
1458 8157440 8242368 8489402
1459 8156324 7880448 8171851
1460 8022418 7559410 8081405
1461 7939270 7505977 7990921
1462 7902687 7640941 8141559
1463 8247736 7870744 8157168
1464 8581306 8077721 8016303
1465 8764927 8193333 7824717
1466 9220742 8686318 7878260
1467 9412137 8970481 8111116
1468 9653483 9488023 8307716
1469 9791340 9813851 8485531
1470 9915461 9922512 8543945
1471 10021229 9885867 8439821
1472 10280979 10055219 8196247
1473 9984328 10014456 8436754
1474 9735230 9756842 8555399
1475 9521400 9361332 8388035
1476 9107430 8920124 8268525
1477 8865799 8636107 8212289
1478 8599732 8431533 8417918
1479 8502893 8406011 8384217
1480 8493321 8328452 8242984
1481 8438237 8016034 8050466
1482 8366497 8143331 8269395
1483 8569000 8207803 8097995
1484 8730477 8332289 7952175
1485 8995406 8448029 7922796
1486 9572807 9114618 8047829
1487 9899212 9574914 8154583
1488 10077295 9937746 8288439
1489 10221437 10022625 8324763
1490 10435353 10201565 8293570
1491 10361851 10429792 8481835
1492 10435701 10530490 8611383
1493 10295508 10372850 8648915
1494 10058624 10240191 8705529
1495 9614526 9993780 8859202
1496 9165072 9398374 8761717
1497 8889927 8801380 8404538
1498 8662333 8600013 8364863
1499 8318998 8338979 8446393
1500 8340124 8074566 8261703
1501 8451609 8346209 8359746
1502 8380025 8342140 8376148
1503 8642463 8621576 8388350
1504 8845958 8618261 8333646
1505 9196726 8932496 8177268
1506 9637523 9548420 8295777
1507 10132609 9996590 8319677
1508 10373213 10323860 8502818
1509 10555815 10524428 8434047
1510 10461524 10555566 8478056
1511 10614377 10527044 8395985
1512 10679919 10438208 8325994
1513 10322307 10430116 8584915
1514 9689773 10174642 8966518
1515 9546231 9927612 8934135
1516 9243357 9552433 8780355
1517 8991650 9246267 8629658
1518 8896001 9013245 8637215
1519 8632660 8685052 8586263
1520 8630624 8503532 8334574
1521 8543587 8503387 8346527
1522 8585352 8457086 8383385
1523 8738509 8683495 8437273
1524 9059156 8957936 8273610
1525 9217259 9193891 8413280
1526 9584681 9573000 8461731
1527 10066906 9967593 8408851
1528 10279709 10379498 8495363
1529 10383906 10665988 8728639
1530 10242468 10495462 8837864
1531 10201856 10599874 8761435
1532 10463832 10793938 8782843
1533 10086233 10562348 9034118
1534 9758897 10122116 8915627
1535 9705766 10072315 8776689
1536 9198069 9552630 8863407
1537 8719702 9026472 8860426
1538 8422546 8677480 8733502
1539 8103528 8249591 8561120
1540 7977850 8092321 8589826
1541 7833471 7875470 8580911
1542 7974673 8044209 8503876
1543 8245974 8379412 8531114
1544 8434498 8441245 8529474
1545 8622550 8453477 8319641
1546 9046501 8974854 8384924
1547 9289571 9332361 8503830
1548 9620406 9680003 8571069
1549 9873743 9999208 8650444
1550 9859743 10263309 8791542
1551 9510453 10074887 8987969
1552 9540652 9867195 8868654
1553 9417971 9786112 8826487
1554 9288896 9818796 8962438
1555 9229249 9730246 9044394
1556 8780835 9199904 8985232
1557 8198097 8624493 8876613
1558 7763939 8308734 9047283
1559 7605941 7931783 8879887
1560 7628556 7865182 8699759
1561 7693736 7776347 8459417
1562 7728714 7532758 8277489
1563 7784084 7611611 8424729
1564 7867747 7994235 8574101
1565 8159772 8378236 8619655
1566 8581224 8765019 8659116
1567 8908280 8867746 8459507
1568 9160292 9042061 8293685
1569 9316115 9180280 8274885
1570 9353695 9197833 8421822
1571 9464443 9582128 8614993
1572 9371735 9871030 8923873
1573 9131551 9456206 8776404
1574 8870631 8728014 8402812
1575 8623988 8760364 8630343
1576 8163950 8551976 8788078
1577 7774002 8262209 9005723
1578 7574817 7907370 8850408
1579 7400306 7505826 8568371
1580 7333863 7416836 8550651
1581 7360033 7251863 8423813
1582 7338223 7241477 8344599
1583 7751409 7632694 8291882
1584 8060174 7906578 8333434
1585 8276215 8124889 8397249
1586 8751781 8797722 8507581
1587 8920838 8826973 8383121
1588 9081944 9038924 8486709
1589 9421428 9560051 8685004
1590 9282682 9788492 8993088
1591 9166903 9663057 8901236
1592 9257939 9432647 8718411
1593 9046769 9069779 8509287
1594 8672714 9053513 8776456
1595 8348906 8903550 9001995
1596 8163142 8341210 8717853
1597 7909134 7959251 8507376
1598 7571315 7723503 8562445
1599 7147065 7372815 8675579
1600 7251121 7192049 8481748
1601 7072848 7226568 8576851
1602 7151253 7352123 8674780
1603 7441022 7505322 8620517
1604 7878948 7808879 8393298
1605 7992691 8007333 8411899
1606 8346582 8422470 8584501
1607 8577402 8769923 8747147
1608 8842004 9085033 8690153
1609 9223734 9460475 8603060
1610 9155568 9308766 8678886
1611 9134777 9361030 8796880
1612 9315970 9529329 8622033
1613 9033583 9416791 8807516
1614 8640088 9034812 8967132
1615 8356300 8738438 8894633
1616 8115243 8485779 8837384
1617 7775457 8130390 8842650
1618 7514165 7779076 8760939
1619 7272325 7700656 8853463
1620 7643906 7815230 8537540
1621 7448072 7533170 8600262
1622 7282034 7425860 8621365
1623 7729944 7974490 8619935
1624 8010073 8160849 8533943
1625 8076874 8161415 8582546
1626 8405877 8456863 8538277
1627 8988137 9014904 8421836
1628 9179514 9341175 8613187
1629 9244257 9459309 8742351
1630 9144695 9504175 8840711
1631 9017876 9536835 8953262
1632 9074206 9560323 8956753
1633 8934774 9337430 8962749
1634 8705436 9116411 8851457
1635 8603106 8959082 8811210
1636 8105683 8356438 8820733
1637 7834416 8137042 8865066
1638 7597260 8155081 9000842
1639 7227506 7780972 9025094
1640 6978648 7294078 8889539
1641 7016835 7261644 8715039
1642 7358406 7532386 8601070
1643 7663919 7734735 8541921
1644 7930538 8065792 8677717
1645 8196771 8467884 8676910
1646 8550043 8776473 8638388
1647 8724741 8998783 8727590
1648 8916988 9111033 8667965
1649 8902250 9336799 8873603
1650 8974707 9479060 8987012
1651 9010723 9455013 8960959
1652 9179663 9645008 8931160
1653 9151648 9531684 8829110
1654 8986425 9347244 8890832
1655 8554913 9079922 9085342
1656 8090539 8816324 9186795
1657 7751219 8657834 9373406
1658 7453469 8261119 9329121
1659 7367612 7821637 9006847
1660 7443045 7718832 8706739
1661 7262385 7586192 8716525
1662 7263262 7420563 8645023
1663 7559764 7779946 8667014
1664 7745112 8051865 8704166
1665 8005712 8249861 8686634
1666 8431238 8594673 8700130
1667 8558688 8945769 8786069
1668 8759826 9341760 8943760
1669 9046378 9502312 8966446
1670 9133544 9552262 8888364
1671 9156514 9711116 8934652
1672 9321129 9915925 8996179
1673 9154949 9676414 9049417
1674 8923176 9458046 8992293
1675 8692012 9301800 9087178
1676 7935821 8663587 9280389
1677 7456124 8335235 9392103
1678 7366088 7771165 8840500
1679 7071602 7703865 9092602
1680 7165114 7624337 8976697
1681 7028970 7677409 9222838
1682 7254235 7609594 8720752
1683 7588476 7763532 8670998
1684 7687211 8054760 8912839
1685 8056133 8222058 8605052
1686 8559758 8874743 8706582
1687 8610294 9168486 9038200
1688 8844124 9337405 9036071
1689 9152493 9695418 8964350
1690 9351576 9961463 8974590
1691 9247867 9768313 9033446
1692 9127341 9674137 9063596
1693 8832327 9524081 9145647
1694 8514448 9419562 9344800
1695 8467128 9488740 9565295
1696 8182076 8988606 9285081
1697 7908209 8485533 9040522
1698 7526341 7950376 8925385
1699 7063532 7443684 8952038
1700 6998236 7673271 9124010
1701 7018881 7701418 9069041
1702 7278188 7772532 9016240
1703 7644870 7941755 8799648
1704 7971439 8216959 8699462
1705 8038566 8557104 8956165
1706 8303529 8723241 8916673
1707 8717578 9263134 9013578
1708 9064625 9768238 9106276
1709 9270104 10195183 9345136
1710 9377856 10326722 9467277
1711 9319521 10111557 9205753
1712 9104986 9915160 9178304
1713 8940151 9638130 9215001
1714 8812636 9419935 9163231
1715 8563920 9207314 9031815
1716 8117650 8634107 8939728
1717 7721740 8308251 9192432
1718 7315326 8026081 9188394
1719 7058834 7978632 9330494
1720 7335779 8013491 9117511
1721 7272296 7997255 9270916
1722 7264492 7887866 9092554
1723 7523026 8183887 9056493
1724 7790550 8347935 9058449
1725 8065411 8441557 8911092
1726 8354413 9007835 9043323
1727 8656112 9368835 9123581
1728 8970060 9681957 9260823
1729 9237756 9995956 9241849
1730 9267050 10093448 9198255
1731 9370177 10027785 9165532
1732 9025241 9981104 9481219
1733 8859843 9768566 9403286
1734 8643543 9688146 9446998
1735 8242547 9421989 9653143
1736 8000344 9026529 9550862
1737 7625095 8708035 9501219
1738 7315824 8299590 9400496
1739 7097478 7945145 9384656
1740 7144149 7747900 9113914
1741 7169531 7793822 9033878
1742 7215820 7907767 9174968
1743 7436450 8058181 9137574
1744 7598025 8248787 9099285
1745 8032916 8649753 9006990
1746 8387580 8980644 9048489
1747 8739418 9219658 9051325
1748 8993349 9631949 9022825
1749 9002626 9900786 9340665
1750 9162561 9938206 9266107
1751 9403348 10099323 9199177
1752 9355990 10259060 9320967
1753 8909410 10052155 9614995
1754 8645081 9763015 9652124
1755 8545662 9478893 9377345
1756 8158271 9219147 9538393
1757 7506765 8703112 9668804
1758 7220234 8049988 9386327
1759 7078644 7895652 9232131
1760 7252860 7991798 9151741
1761 7267978 8049401 9270168
1762 7261480 7970622 9238024
1763 7288262 8205816 9319092
1764 7464356 8325239 9279164
1765 7826726 8275999 8993677
1766 8232972 8843259 9069207
1767 8450060 9398476 9392340
1768 8800828 9812145 9501352
1769 9120963 10057211 9494314
1770 9200992 10201657 9446503
1771 9153342 10125275 9365276
1772 9122278 10094595 9451802
1773 9115370 10119805 9510200
1774 8744712 9968526 9633988
1775 8536512 9744792 9658097
1776 8023755 8929466 9467025
1777 7396122 8537628 9608152
1778 7203939 8269469 9457849
1779 7078333 7980864 9375651
1780 7155778 7940516 9296517
1781 7270408 7939311 9088982
1782 7350590 7998294 9099674
1783 7439561 8236859 9295553
1784 7704419 8425676 9197429
1785 7812880 8695903 9259887
1786 8288214 9165002 9315832
1787 8588641 9481367 9416683
1788 8762897 9608698 9346966
1789 8971953 10025218 9377460
1790 9244100 10248342 9489960
1791 9281012 10393779 9652615
1792 9313021 10493268 9599267
1793 9097710 10255916 9639005
1794 8656545 9791460 9645729
1795 8427342 9361633 9472755
1796 8034409 9005023 9415137
1797 7699394 8728862 9499765
1798 7491733 8721731 9812498
1799 6944296 8306354 9824642
1800 6813876 7922655 9545040
1801 6709237 7814747 9567659
1802 7066284 7989443 9415917
1803 7574865 8410651 9202969
1804 7824096 8495137 9094152
1805 7820925 8644616 9361426
1806 8257307 9443949 9675996
1807 8636517 9860492 9606622
1808 8779458 9761896 9401428
1809 8871471 9679377 9315185
1810 8834641 9817069 9465726
1811 9013345 10208962 9569946
1812 9100322 10418397 9816648
1813 9053347 10223764 9728651
1814 8765531 9929023 9668321
1815 8411322 9500571 9537936
1816 8095219 9238811 9666759
1817 7870694 8977872 9639126
1818 7458791 8782260 9728826
1819 7216899 8503991 9721162
1820 7305664 8359592 9611012
1821 7101404 8088123 9411567
1822 7168880 8191459 9395257
1823 7333508 8249549 9398255
1824 7535672 8602664 9570503
1825 7713364 8859971 9604588
1826 8107693 9186380 9423257
1827 8598703 9508393 9455188
1828 8872818 9843713 9489610
1829 9128864 10224277 9486764
1830 9152212 10384493 9689513
1831 9076701 10237115 9676879
1832 8981532 10073448 9559320
1833 8835009 10053157 9655230
1834 8545896 9968543 9921097
1835 8271941 9618821 9874603
1836 7773469 9222046 9924942
1837 7477357 9014899 9966361
1838 7125954 8804115 10215055
1839 6964039 8535567 10080142
1840 6889190 8312589 9841658
1841 7037494 8301769 9705501
1842 7286186 8328581 9556475
1843 7514817 8466965 9362523
1844 7685448 8574157 9296442
1845 7797414 8712427 9397429
1846 8305722 9253819 9440388
1847 8663317 9677412 9463207
1848 8756161 9947322 9560280
1849 9015166 10174567 9677674
1850 8758534 10220693 9983443
1851 8935964 10442746 9893729
1852 9176041 10428746 9679423
1853 9030903 10233903 9726102
1854 8841149 10100874 9792145
1855 8387145 9945099 10002682
1856 7855972 9374998 10034343
1857 7368148 8893170 10054974
1858 7201195 8663289 9929346
1859 6810506 8431230 10043187
1860 6756341 8204574 9957881
1861 6843926 8156787 9797247
1862 7040520 8413380 9819240
1863 7301873 8646864 9726560
1864 7362204 8514032 9689375
1865 7718786 8775217 9533154
1866 8288724 9406549 9517985
1867 8757048 9748951 9527442
1868 8965168 10063119 9651889
1869 9109736 10348648 9694682
1870 9161864 10551441 9779195
1871 9153249 10636756 10025923
1872 9136902 10722315 10066071
1873 9052972 10730540 10066606
1874 8740452 10466436 10197023
1875 8334712 10021249 10250484
1876 7888982 9452097 10128959
1877 7380272 9181322 10201107
1878 7122594 9102877 10456324
1879 6995646 8775133 10322574
1880 6900865 8337659 9896418
1881 6778323 8280910 9924280
1882 6795280 8355141 10106113
1883 7054372 8643458 10018638
1884 7420275 9013378 10033566
1885 7740831 9492973 10142570
1886 8271047 9853466 10130261
1887 8482430 10095518 10079393
1888 8743142 10138873 9780786
1889 8802506 10236270 9898437
1890 8957997 10534337 10109787
1891 9114984 10860549 10156431
1892 9298462 11048200 10125395
1893 9105525 10755533 10128712
1894 8718577 10289266 10110346
1895 8180609 9947338 10213761
1896 8039149 9739650 10097500
1897 7912008 9367937 9997432
1898 7531374 8847157 9798312
1899 7094934 8502863 9821722
1900 6959435 8539696 10019891
1901 7090956 8518545 9925433
1902 7260871 8671718 9894741
1903 7452514 8928148 9871014
1904 7618594 9118091 9969255
1905 7896469 9231241 9820827
1906 8294081 9683548 9810858
1907 8722228 10102756 9762932
1908 8977966 10339748 9925179
1909 9183754 10672156 10014236
1910 9132332 10949361 10188404
1911 9286024 11004357 10191005
1912 9083416 10937163 10407798
1913 8944305 10797528 10316811
1914 8653619 10473426 10222232
1915 8380146 10322245 10375126
1916 8040230 9964598 10425714
1917 7700644 9660266 10398326
1918 7370070 9229408 10277961
1919 7077981 8849851 10317734
1920 7082828 8705162 10100016
1921 6852720 8455379 9977018
1922 7103913 8552670 9870964
1923 7480812 8766122 9821715
1924 7613989 8925856 9775164
1925 7921026 9343486 9750250
1926 8339354 9644847 9804181
1927 8568654 10004133 9970040
1928 8780949 10479785 10147486
1929 9017250 10631625 10031085
1930 9049456 10709820 10142031
1931 9081615 10975580 10386335
1932 9122637 11023071 10278095
1933 8761724 10590370 10245019
1934 8721868 10288472 10060343
1935 8486264 10070242 10056346
1936 7922099 9767998 10222579
1937 7690779 9584343 10411251
1938 7356979 9262455 10402559
1939 6967006 8747124 10173961
1940 6943871 8566956 10053962
1941 6931874 8417921 9989366
1942 6952036 8252921 9737136
1943 7109675 8511354 9780945
1944 7266981 8793149 9949488
1945 7486224 9105786 10163317
1946 8050477 9707707 10103631
1947 8394146 10227961 10167118
1948 8706706 10214052 10017849
1949 8789498 10583691 10340983
1950 8686704 10733356 10430279
1951 8874392 10753536 10323856
1952 9047858 10751370 10199499
1953 8663579 10585023 10408473
1954 8426493 10376244 10384263
1955 8031616 10379003 10784553
1956 7672583 9827436 10685945
1957 7480686 9429365 10436360
1958 7203031 9010228 10143607
1959 7188831 8670538 9925010
1960 7160898 8423110 9809932
1961 6891652 8495730 10004075
1962 6901567 8574380 10061799
1963 7129427 8685613 10089652
1964 7478706 8989238 10000879
1965 7724683 9450550 10114124
1966 7979124 9819033 10244516
1967 8312935 9994234 10118100
1968 8599214 10330477 10131052
1969 8708997 10661079 10307239
1970 8746034 10620355 10369889
1971 8834997 10692765 10395556
1972 8746700 10680395 10439244
1973 8532294 10592873 10517023
1974 8423232 10409541 10450088
1975 8322699 10031658 10228350
1976 7791420 9716958 10360908
1977 7396660 9429005 10522902
1978 7278919 9187405 10424895
1979 7255739 9011527 10225072
1980 6863472 8757894 10309913
1981 6725337 8444462 10204284
1982 6810049 8464980 10181725
1983 6958891 8922022 10359035
1984 7255171 9183613 10342033
1985 7399230 9309776 10386073
1986 7838076 9758884 10418499
1987 8258408 10095614 10182549
1988 8474879 10234333 10182202
1989 8685832 10521581 10314432
1990 8809929 10759217 10410580
1991 8913072 11024259 10497120
1992 8874291 10746859 10343945
1993 8578215 10547143 10509559
1994 8466969 10617662 10627507
1995 8383521 10577084 10604939
1996 7912874 9948238 10607114
1997 7377797 9452767 10587272
1998 7065726 8937982 10307755
1999 6605173 8769151 10552883
2000 6766592 8691074 10473620
2001 6604074 8695932 10565757
2002 6744483 8789657 10477430
2003 7087539 9062181 10374426
2004 7506748 9047663 10072447
2005 7671091 9388273 10122449
2006 7765656 9777227 10326912
2007 8121282 10221797 10607008
2008 8388112 10449315 10498948
2009 8592969 10682477 10441906
2010 8528673 10701088 10605696
2011 8930538 10754866 10307884
2012 8771969 10899625 10632920
2013 8685452 10845273 10510523
2014 8553935 10650556 10526336
2015 8406840 10457134 10555892
2016 7833431 9940026 10556883
2017 7293225 9410598 10581284
2018 6922472 8980757 10615343
2019 6717952 8711792 10468410
2020 6705725 8681698 10395719
2021 6547019 8505093 10371953
2022 6619411 8512443 10421630
2023 6960533 8828254 10312085
2024 7258637 9124124 10248464
2025 7351168 9322248 10413025
2026 7846990 9714627 10366917
2027 8104405 10275564 10603842
2028 8487706 10601605 10517740
2029 8711747 10819011 10625768
2030 8724884 11217001 10959150
2031 8736140 11193457 10803025
2032 8586115 11133777 10933218
2033 8361364 10608431 10766010
2034 8331906 10398327 10540525
2035 8127597 10235339 10501735
2036 7663746 9880604 10748358
2037 7304984 9610947 10836609
2038 7108825 9404759 10679253
2039 6809732 8785977 10410824
2040 6697842 8653209 10460065
2041 6739113 8763074 10558950
2042 6999331 8755227 10126327
2043 7163276 8713811 9981590
2044 7376014 8816473 9984157
2045 7617494 9311360 10137794
2046 8069859 9853146 10127951
2047 8242154 9934930 10167726
2048 8472720 10039725 10116600
2049 8862881 10462476 9999250
2050 9181146 10645170 9828303
2051 9151083 10813355 10189346
2052 9102931 10965927 10394483
2053 9097618 11140278 10447008
2054 8791685 10955383 10543724
2055 8579738 10829515 10777807
2056 8056802 10502583 10976684
2057 7789862 10461650 11034414
2058 7764873 10465995 11169581
2059 7717717 10474071 11292098
2060 7654912 10813273 11598790
2061 7699872 10914717 11567127
2062 7938702 11012440 11568290
2063 8033013 11342734 11845112
2064 8311696 11877602 11956675
2065 8785411 12563386 12189818
2066 9334532 13045669 12213344
2067 9879919 13687845 12256382
2068 10254506 14188087 12339248
2069 10425511 14246463 12286711
2070 10689681 14828901 12676984
2071 10588269 15102567 12941780
2072 10135596 14975755 13237486
2073 9544924 14469006 13411714
2074 9110270 13911503 13317644
2075 8728985 13358142 13069365
2076 8002366 12626724 13060892
2077 7576954 11742494 12652551
2078 7127299 10955366 12273577
2079 6666588 10688584 12392852
2080 6544153 10475181 12362221
2081 6408673 10216504 12375107
2082 6214213 10232202 12494996
2083 6106400 10352408 12599898
2084 6209919 10476805 12710970
2085 6238142 10506299 12726619
2086 6425251 10790327 12760781
2087 6976097 11183435 12569580
2088 7773941 11507743 12196327
2089 8231727 11561044 11821691
2090 7978086 11507743 11884372
2091 8143160 11532335 11866613
2092 8112607 11545735 11996040
2093 7861565 11596262 12147844
2094 7730287 11500029 12156681
2095 7750487 11231651 12010213
2096 7410517 10810053 11960231
2097 7051189 10457500 11793454
2098 6729396 10391207 12100380
2099 6623364 10228001 12109724
2100 6390924 9889211 11918797
2101 6361544 9883387 11901377
2102 6512310 9928743 11858978
2103 6721231 10282184 12056783
2104 6803044 10418641 12048011
2105 7091459 10600444 11824629
2106 7563523 10975395 11817824
2107 7933603 11195088 11766965
2108 8127155 11447279 11714371
2109 8413935 11722954 11693909
2110 8717472 11678846 11448780
2111 8760427 11626092 11336643
2112 8586714 11630762 11441571
2113 8365812 11578972 11691207
2114 8031756 11190173 11649592
2115 7827961 10973160 11606397
2116 7405854 10562545 11633795
2117 6914506 10198319 11803119
2118 6703737 9791436 11575730
2119 6608197 9636101 11409989
2120 6912625 9761391 11288491
2121 6754098 9458606 11178351
2122 6778145 9515800 11202414
2123 6982533 9629135 11042571
2124 7161255 9770112 11032122
2125 7499922 10040543 11040911
2126 7665520 10327019 11061552
2127 8103527 10705355 10980236
2128 8328644 10974391 11153323
2129 8638025 11332486 11152480
2130 8719767 11511379 11253891
2131 8587824 11609515 11454501
2132 8402262 11478227 11584037
2133 8372343 11306277 11445447
2134 8223991 11162778 11314567
2135 7995390 11000856 11446273
2136 7476959 10392951 11426099
2137 7003251 9885427 11290345
2138 6910105 9947913 11424965
2139 6781867 9662099 11378178
2140 6839700 9441086 11150820
2141 6584279 9356811 11174678
2142 6448417 9305207 11267626
2143 6726484 9385288 11144459
2144 7347470 9668752 10698099
2145 7351752 9899761 10952955
2146 7724887 10502240 11167728
2147 8379699 10860879 10947356
2148 8611436 11035350 10819807
2149 8718434 11177297 10792838
2150 8776348 11340326 11013715
2151 8956044 11490859 11070462
2152 8590805 11193325 11060993
2153 8234418 11204939 11426950
2154 8009711 11051108 11608700
2155 8060558 10910816 11314421
2156 7806895 10708819 11305808
2157 7182228 10254622 11540049
2158 6743683 9545514 11323607
2159 6539029 9360969 11197708
2160 6544342 9301859 11124844
2161 6422457 9117587 11142448
2162 6702357 9283427 11114292
2163 6897689 9646085 11178034
2164 7048030 9816421 11221846
2165 7360515 10031534 11179727
2166 7873614 10447362 11019800
2167 8269319 10889504 11006867
2168 8518302 11161930 11068709
2169 8820776 11511513 11189899
2170 8826274 11601682 11222889
2171 8773362 11632606 11238758
2172 8511152 11567468 11548809
2173 8449352 11313901 11347046
2174 8278353 11093928 11244802
2175 7743907 10758833 11467596
2176 7411308 10334174 11388912
2177 7363917 10223749 11362359
2178 6948449 9908945 11367631
2179 6432045 9523644 11542721
2180 6302855 9161455 11450843
2181 6312222 9068392 11179705
2182 6508920 9336199 11188547
2183 6781697 9528873 11232038
2184 7052120 9881505 11325452
2185 7400913 10233754 11287719
2186 7736164 10569400 11169027
2187 8298339 10909213 11094604
2188 8711954 11241781 10994809
2189 8565988 11409436 11200212
2190 8613031 11716669 11548038
2191 8961061 12126421 11665258
2192 8568311 11954146 11793597
2193 8608374 11969772 11744395
2194 8287639 11536573 11730685
2195 7962200 11126349 11620468
2196 7754043 10803245 11472060
2197 7367464 10178591 11184453
2198 7227453 9988913 11264100
2199 7088775 9822362 11136707
2200 6991025 9765258 11157430
2201 6964763 9792593 11262117
2202 6824379 9707245 11450443
2203 6796140 9822832 11477330
2204 7166926 10105145 11332712
2205 7393396 10288274 11303940
2206 7692705 10617004 11436898
2207 7970506 11010270 11508996
2208 8398302 11407643 11403748
2209 8808351 11720162 11379299
2210 9007691 11811223 11295423
2211 9057008 11943866 11295971
2212 8788251 11862438 11489182
2213 8478559 11759357 11752716
2214 8386213 11746634 11832641
2215 8036142 11509562 11846998
2216 7784312 11038364 11729446
2217 7442589 10394453 11445432
2218 7032985 10082383 11458466
2219 6985854 10002119 11404923
2220 6918900 9841926 11479926
2221 6901488 9817134 11379494
2222 7084021 10052325 11378093
2223 7177785 10165974 11394842
2224 7387629 10333132 11487328
2225 7671331 10709496 11463634
2226 7963859 11153016 11518216
2227 8414972 11490000 11511715
2228 8595536 11668292 11571715
2229 8772846 11852709 11452017
2230 8761260 11952394 11597162
2231 8820290 12021180 11712222
2232 8704287 12096914 11835181
2233 8554216 11946543 11766624
2234 8377504 11732532 11848752
2235 8162416 11537972 11888170
2236 7974184 11234207 11693950
2237 7485371 10934861 11811518
2238 7108794 10472510 11817918
2239 7076370 10341507 11754649
2240 7002926 10312535 11686139
2241 6989206 10290314 11685122
2242 7245641 10418193 11660144
2243 7370415 10582038 11697092
2244 7421839 10752104 11683574
2245 7692980 10899849 11611694
2246 8113929 11075845 11429583
2247 8556108 11539053 11424780
2248 8684432 11938668 11615489
2249 9048242 12347835 11834368
2250 8958468 12413673 12003120
2251 9043867 12532549 11929136
2252 8955749 12610856 12014937
2253 8854389 12288914 11911130
2254 8578904 11863219 11817616
2255 8346617 11947693 12015036
2256 7884281 11583412 12149040
2257 7475995 11178802 12172147
2258 7297967 11048341 12164757
2259 6895936 10852361 12305449
2260 6963074 10473363 11941757
2261 7322224 10335153 11507395
2262 7348646 10339766 11425573
2263 7611092 10485377 11228622
2264 7741773 10686728 11403782
2265 7998011 11024537 11456465
2266 8490632 11603682 11501517
2267 8980992 12042860 11507221
2268 9154742 12300915 11697137
2269 9386235 12677432 11738693
2270 9586866 12865577 11673690
2271 9509617 12950201 11896305
2272 9525276 12945316 11949168
2273 9154212 12726064 11996488
2274 9038780 12523264 11873417
2275 8773066 12125061 11867184
2276 8424140 11812492 11867740
2277 8110784 11592279 11877984
2278 7848460 11354525 11920234
2279 7509240 11113800 12149952
2280 7523394 10899933 11837736
2281 7423735 10832249 11791833
2282 7615363 10800614 11664893
2283 7682393 10751765 11567591
2284 7923425 11071083 11509586
2285 8161144 11447988 11665219
2286 8489303 11847456 11810346
2287 8860951 12206994 11820891
2288 9086692 12733335 12032480
2289 9358108 13094103 12121702
2290 9469496 13057915 12090957
2291 9528769 13087007 12001342
2292 9496848 13344469 12252818
2293 9292465 13271773 12450967
2294 9084151 12714396 12184411
2295 8843153 12549449 12158652
2296 8504560 12334732 12232950
2297 8051641 11782685 12211956
2298 7819980 11357248 12041408
2299 7530765 11138968 12072168
2300 7067382 10805995 12167481
2301 6818764 10575179 12231812
2302 6965902 10523156 11999629
2303 7601961 11175131 11853528
2304 8112185 11356129 11712412
2305 8297441 11307425 11563020
2306 8454354 11715076 11653445
2307 8793598 12265662 11846939
2308 8926403 12621190 12160395
2309 8935736 12630826 12169797
2310 8928740 12649503 12101264
2311 9163633 12611472 11872980
2312 9297361 12868858 12084798
2313 9322852 12979944 12137322
2314 8921107 12668535 12130914
2315 8394209 11998357 12028558
2316 8006834 11479588 11988258
2317 7582276 11072912 11923612
2318 7177110 10951184 12152474
2319 6910718 10560106 12118013
2320 6884214 10409607 12072342
2321 6747475 10368455 11982818
2322 6831241 10359935 11966744
2323 6982537 10238732 11748582
2324 7237056 10541828 11753462
2325 7206784 10851284 12031862
2326 7376621 11205017 12229169
2327 8075848 11442007 11897814
2328 8326678 11485999 11613070
2329 8652531 12060428 11801663
2330 8852616 12178089 11798777
2331 8716170 12130151 11909469
2332 8618084 12124668 11916568
2333 8513049 11999493 11837064
2334 8313855 11710468 11907550
2335 8094805 11443393 11838792
2336 7499578 11035020 11922470
2337 7125550 10568429 11877812
2338 6792375 10127761 11914413
2339 6541257 9959980 11841948
2340 6604448 10003775 11793619
2341 6448188 9889811 11932836
2342 6377908 9734581 11809009
2343 6547955 9830532 11645424
2344 7142999 10238460 11468776
2345 7557945 10498621 11438383
2346 7509609 10812002 11795233
2347 7705663 11255210 11907123
2348 8028390 11508874 11931425
2349 8245588 11660392 11909436
2350 8355454 11536502 11660618
2351 8387403 11781783 11773807
2352 8306832 11690006 11858536
2353 8382591 11565719 11711075
2354 7831892 11396621 12003439
2355 7652050 11353738 12126547
2356 7319893 10853627 12020067
2357 7186970 10452247 11750066
2358 6665861 10233535 11945366
2359 6364988 9856610 11851567
2360 6342907 9512397 11682268
2361 6155542 9461836 11706007
2362 6249443 9722695 11852536
2363 6386959 9955865 12014631
2364 6621466 10016494 11848036
2365 6715627 9923767 11548243
2366 6907297 10267710 11720007
2367 7181403 10407894 11678853
2368 7891356 10753998 11276893
2369 8327674 11254697 11304203
2370 8372299 11545814 11625869
2371 8546058 11729618 11705532
2372 8429149 11922601 11903438
2373 8446219 11896224 11829757
2374 8193907 11428485 11757707
2375 7764478 10910289 11666146
2376 7513342 10551621 11463491
2377 7293403 10286477 11419157
2378 6854184 9830512 11487025
2379 6437837 9537225 11579102
2380 6199466 9433266 11598460
2381 6319073 9592617 11697516
2382 6239137 9366339 11601504
2383 6307379 9401524 11543037
2384 6594983 9714537 11473565
2385 6806337 9978579 11620177
2386 7327866 10398699 11530063
2387 7591150 10781548 11655591
2388 7673467 10987560 11700892
2389 8023073 11240560 11730294
2390 8089558 11447070 11792947
2391 8457876 11848939 11763598
2392 8433649 11845744 11891959
2393 8306187 11531982 11726623
2394 7842544 11178519 11759961
2395 7532248 11117494 11960744
2396 7008348 10479210 11978593
2397 6582984 10026522 11947548
2398 6468955 9963245 11894866
2399 6503955 9821835 11648729
2400 6457473 9691349 11797661
2401 5991883 9342131 11753127
2402 6062957 9270693 11576902
2403 6421724 9529254 11489007
2404 6525917 9730278 11678003
2405 6838749 10067316 11597911
2406 7455894 10551967 11423882
2407 7969612 10948404 11417584
2408 7900316 11095481 11704185
2409 7969280 11226665 11677164
2410 8047882 11409962 11788502
2411 8071438 11542415 11952759
2412 8140209 11482140 11820809
2413 8034055 11487069 11865215
2414 7871085 11264310 11870957
2415 7637851 10868158 11762460
2416 7294416 10520753 11691968
2417 6890373 10267711 11801647
2418 6604613 10008402 11866244
2419 6490598 9711503 11678459
2420 6364109 9686206 11775302
2421 6037045 9518485 11834358
2422 6348634 9566804 11743591
2423 6503768 9593814 11531867
2424 6647443 9863759 11571733
2425 6930226 10322415 11754780
2426 7213986 10486463 11781977
2427 7499782 10955562 11844580
2428 7905516 11158469 11632425
2429 8202451 11314359 11506220
2430 8236669 11547136 11851987
2431 8388646 11807874 11809610
2432 8339758 11726363 11807422
2433 8065542 11523335 11974912
2434 7843594 11220533 11852892
2435 7642597 11136017 11858513
2436 7287732 10824712 12005671
2437 6579135 10276744 12230895
2438 6308290 9971995 12073830
2439 6336928 9775765 11816781
2440 6441725 9538746 11546328
2441 6239465 9221643 11521530
2442 6155102 9264254 11529544
2443 6342972 9574708 11607294
2444 6562046 9779151 11656537
2445 6936755 9965312 11508322
2446 7230599 10465931 11583169
2447 7490531 11093306 11971001
2448 7929638 11322701 11884929
2449 8165803 11657611 11931732
2450 8187742 11819611 12000647
2451 8297897 11651771 11749472
2452 8242048 11538385 11814434
2453 8074590 11569011 11930661
2454 8088843 11504285 11777445
2455 7696190 11103858 11952699
2456 7401288 10972772 12019172
2457 6887439 10472996 12036318
2458 6487788 10017594 11929947
2459 6206723 9586210 11890576
2460 6169213 9623991 11908095
2461 6107338 9574634 11876414
2462 6090497 9471958 11810825
2463 6168302 9620326 11920389
2464 6701177 9927956 11600431
2465 7032596 10237353 11554922
2466 7218304 10422171 11636931
2467 7722379 10736845 11515424
2468 8181119 11301611 11546421
2469 8244950 11412580 11572264
2470 8421825 11888821 11987860
2471 8413667 12074567 12052255
2472 8185181 11713802 11857962
2473 8045146 11469697 11864961
2474 7587520 11009268 11974048
2475 7325647 10797455 11934252
2476 7186186 10755519 11948597
2477 6712555 10319376 12104091
2478 6451760 9965627 11991443
2479 6311692 9719979 11809600
2480 6353080 9634529 11633290
2481 6268590 9477513 11714526
2482 6385807 9374562 11482095
2483 6512597 9697282 11568127
2484 6775149 9944230 11572797
2485 6688636 10092666 11936922
2486 7177189 10629317 11877428
2487 7505512 11152896 11991082
2488 7703010 11344398 12064042
2489 8035211 11397398 11853347
2490 8138579 11484196 11758003
2491 8296694 11712591 11803429
2492 8260195 11627976 11861492
2493 8038543 11438622 11907173
2494 7879754 11342710 11853757
2495 7554416 11208886 12077887
2496 7137189 10720686 12105253
2497 6657053 10192444 11965756
2498 6462617 10080723 11993927
2499 6164068 9595036 11896896
2500 6031741 9524237 11953263
2501 6130160 9593443 11877175
2502 6102503 9671250 12016048
2503 6166295 9498189 11842910
2504 6508366 9708713 11694282
2505 6853556 10064631 11543192
2506 7212866 10576542 11786317
2507 7579977 10960905 11857350
2508 7923266 11119388 11663179
2509 8171821 11435078 11608445
2510 8113726 11684944 12046225
2511 8171703 11659495 12018458
2512 8008310 11700003 12116780
2513 7887045 11717562 12229677
2514 7777319 11503329 12251641
2515 7525363 11228904 12150639
2516 7159579 10779836 11991479
2517 6964841 10432302 11891876
2518 6715548 9854353 11653156
2519 6354524 9506527 11605801
2520 6053577 9496344 11801370
2521 6141296 9521269 11834129
2522 6361384 9379264 11450808
2523 6410340 9615746 11627814
2524 6552598 9930543 11766764
2525 6772110 10242306 11951030
2526 7303626 10618685 11741653
2527 7702851 11053599 11743828
2528 7857750 11225998 11757659
2529 8048520 11186791 11637840
2530 7886110 11207962 11794208
2531 7910484 11443950 11863624
2532 8228814 11719989 11947593
2533 8045857 11432459 11904662
2534 7733980 11285632 12008741
2535 7696724 11299435 12003191
2536 7463685 11025632 12054154
2537 6690306 10206934 12014517
2538 6496823 9783612 11643697
2539 6210218 9459810 11725150
2540 5944755 9398140 11940310
2541 6152568 9528558 11765270
2542 6240785 9633959 11771483
2543 6282617 9507496 11650034
2544 6496635 9596953 11628143
2545 6757763 10124320 11691444
2546 7206173 10505034 11627439
2547 7370061 10793380 11918258
2548 7625365 11165778 11972981
2549 8096424 11479231 11709153
2550 8370468 11558099 11609963
2551 8212221 11645231 11960123
2552 8180001 11571396 11843782
2553 7900428 11348503 11835518
2554 7649832 11018974 11839153
2555 7171065 10782775 12136142
2556 6876945 10527702 12060510
2557 6722912 10230589 11880866
2558 6660385 10053472 11927083
2559 6488230 9875864 11869576
2560 6212142 9481284 11647653
2561 5836412 9123433 11736931
2562 5867316 9337157 11959404
2563 6169689 9439955 11705634
2564 6335706 9631527 11623087
2565 6671587 9978175 11695536
2566 7111934 10245085 11621673
2567 7437109 10758998 11739164
2568 7720853 11105023 11762256
2569 7905095 11363564 11958599
2570 8079272 11477068 11881635
2571 7986808 11550703 11990841
2572 7895306 11352923 11882077
2573 7771808 11273709 12014127
2574 7746083 11272323 11999648
2575 7411622 10940012 11929819
2576 7045174 10547640 11926740
2577 6783046 10109222 11863255
2578 6376606 9768773 11849146
2579 6092295 9547969 11888200
2580 5995308 9410219 11859585
2581 6068744 9440522 11846734
2582 6236515 9652902 11806617
2583 6308430 9701435 11829147
2584 6346347 9632341 11795567
2585 6547832 9698826 11625092
2586 6831443 10199403 11701862
2587 7221475 10533134 11685058
2588 7568711 10820453 11740041
2589 7960355 11141529 11573063
2590 7972393 11388560 11846647
2591 8113345 11670557 12010929
2592 8148047 11620282 11972552
2593 8019424 11510428 11874666
2594 7842324 11229653 11769365
2595 7442208 10715871 11766708
2596 6975152 10179694 11708953
2597 6595354 9970856 11743867
2598 6291627 9710009 11834672
2599 6052204 9326610 11796939
2600 6070387 9216546 11517559
2601 6085929 9248312 11539009
2602 5857308 9259720 11880193
2603 6052775 9363670 11842799
2604 6361425 9719328 11738061
2605 6804099 9973868 11545387
2606 6911839 10199339 11801940
2607 7118279 10683547 12035109
2608 7543969 11194183 11969415
2609 8012251 11397690 11781729
2610 7921409 11326182 11838548
2611 8174924 11542485 11762260
2612 8259716 11573229 11681452
2613 7605486 11298802 12154837
2614 7363379 10965987 12127869
2615 7074258 10694299 12028939
2616 6867299 10341294 11886776
2617 6545416 9851053 11752103
2618 6514148 9751834 11698447
2619 6390213 9706795 11759274
2620 6083180 9580038 11890872
2621 5969517 9080889 11626438
2622 6126875 9196857 11529174
2623 6434691 9323001 11257160
2624 6567994 9506975 11441224
2625 6645197 9738491 11584473
2626 6949148 10157951 11640618
2627 7355615 10689004 11758019
2628 7600894 10942323 11756995
2629 8046101 11296636 11722148
2630 8270903 11631115 11743169
2631 8263631 11485271 11655639
2632 8081051 11526566 12010490
2633 7921703 11426903 11932061
2634 7825190 11199731 11722356
2635 7697122 11072042 11809633
2636 7247573 10606053 11918459
2637 6559457 10178765 12017200
2638 6324297 9966940 12030992
2639 6025292 9502927 12035113
2640 5841205 9314763 11902313
2641 5842023 9147241 11679571
2642 6037640 9330818 11754857
2643 6212306 9519513 11785342
2644 6291425 9546890 11719078
2645 6611644 9847473 11596523
2646 7098916 10196780 11551748
2647 7520353 10574191 11565328
2648 7542832 10811063 11649020
2649 7835883 11074195 11623502
2650 8007309 11263745 11748698
2651 8196051 11458008 11722095
2652 7998080 11561986 11968716
2653 7542367 11149730 11991681
2654 7324185 10843015 12046078
2655 7284496 10857618 11983384
2656 7181142 10677736 11883604
2657 6831535 10375463 11986377
2658 6296193 9729322 11945802
2659 5945290 9348291 11823260
2660 6038340 9269555 11552674
2661 6072618 9235023 11655135
2662 5980765 9250554 11762196
2663 6024839 9482959 11785729
2664 6487100 9871004 11755116
2665 6787412 9828334 11581461
2666 7053028 10291744 11678637
2667 7392831 10758821 11728261
2668 7603788 10863166 11739714
2669 7792447 10962987 11644354
2670 7940397 11267706 11775949
2671 7879432 11397838 11946623
2672 7755059 11220428 11984943
2673 7729613 11112618 11905420
2674 7532553 10894169 11710322
2675 7261460 10695275 11844917
2676 7016951 10487176 11951132
2677 6638532 10006240 11803186
2678 6394793 9650612 11635333
2679 6099770 9501318 11864481
2680 6103212 9331150 11699097
2681 5871383 9314703 11809609
2682 6008158 9337832 11777335
2683 5972223 9394801 11920698
2684 6134700 9659732 11962895
2685 6462379 9873164 11762043
2686 6918855 10261559 11738751
2687 7362105 10477361 11639465
2688 7663341 10782515 11588421
2689 7997838 11182898 11542905
2690 8333170 11346135 11475127
2691 8284938 11474064 11750654
2692 7897135 11414137 12013406
2693 7687743 11669867 12345465
2694 7603976 11492670 12367595
2695 7472251 11093335 12120351
2696 7105022 10605287 11954530
2697 6409111 9864473 11905848
2698 6043753 9451425 11964103
2699 6047976 9475304 11862942
2700 5880085 9324305 11825981
2701 5898290 9293338 11833892
2702 5945971 9334359 11901175
2703 6079580 9403353 11717491
2704 6342192 9699333 11688048
2705 6739513 9947888 11709278
2706 7049785 10353841 11739289
2707 7537867 10701747 11535609
2708 7669212 11006288 11768592
2709 7743952 11200266 12004930
2710 7757117 11344618 12103567
2711 7911385 11703454 12134525
2712 7915163 11498031 11992223
2713 7697903 10981666 11860244
2714 7550006 10703679 11641471
2715 7360747 10697829 11722770
2716 7215008 10471833 11724879
2717 6700966 9911890 11744524
2718 6374517 9616995 11610081
2719 6319401 9617778 11685727
2720 5967794 9526817 12067787
2721 5918613 9236831 11766515
2722 6239973 9323419 11506407
2723 6031627 9334114 11707588
2724 6377775 9514727 11614627
2725 6799654 9812280 11425245
2726 6987259 10121555 11456538
2727 7654932 10672984 11449657
2728 7845105 10759686 11436407
2729 7697882 10810968 11559636
2730 8001352 11262191 11642870
2731 8227944 11647231 11942879
2732 8373547 11643587 11777442
2733 8173201 11691101 11967694
2734 7779612 11559126 12221812
2735 7543427 11034405 11958119
2736 7267957 10445330 11653345
2737 6560174 9910948 11735648
2738 6322354 9749686 11902360
2739 6166212 9352647 11648758
2740 6170573 9255176 11464884
2741 6010727 9121957 11566131
2742 5905560 9141932 11752288
2743 6010608 8961616 11351635
2744 6323149 9159892 11195869
2745 6782551 9664903 11277906
2746 7154557 10139211 11430196
2747 7475085 10513718 11510048
2748 7698976 10723180 11401764
2749 7875770 10845617 11434940
2750 8023021 11120501 11580664
2751 8157961 11312715 11573735
2752 8019196 11376000 11705326
2753 7841287 11184008 11791917
2754 7632028 10959392 11861119
2755 7277194 10760123 11896156
2756 6910331 10326855 11886870
2757 6656844 9764900 11624783
2758 6312635 9608678 11749521
2759 6218128 9468651 11637083
2760 5966287 9221990 11715152
2761 5662647 8936907 11793417
2762 5934957 9113845 11570835
2763 6047562 9227749 11522167
2764 6387430 9528893 11610490
2765 6674799 9765484 11493891
2766 7105019 10147115 11362820
2767 7475809 10475955 11380527
2768 7683346 10639424 11483598
2769 7823683 10870060 11450817
2770 8056601 11285081 11625043
2771 7979810 11202669 11678325
2772 7809830 11098382 11776837
2773 7796251 11122632 11737582
2774 7554708 10901670 11707537
2775 7277603 10593077 11769130
2776 7108382 10412264 11782635
2777 6600268 9876965 11666929
2778 6419999 9497120 11502282
2779 6181722 9256931 11573724
2780 5920734 9033216 11542466
2781 6000095 9036104 11432669
2782 5952705 8989948 11500693
2783 6146460 9038299 11385119
2784 6091806 9191163 11519989
2785 6349698 9464032 11472884
2786 6802463 9953339 11598022
2787 7222172 10425418 11699952
2788 7533325 10752502 11556839
2789 7913700 10912464 11414584
2790 8003520 11046651 11519525
2791 8280456 11335008 11445340
2792 8079798 11290825 11595362
2793 7626621 11007583 11836102
2794 7364758 10630020 11784617
2795 7153827 10496996 11741635
2796 6674684 10285895 12020522
2797 6254355 9764908 11949949
2798 6101023 9521499 11902240
2799 6046255 9324271 11638504
2800 5776233 9020477 11638467
2801 5534580 8482775 11457421
2802 5740188 8665257 11386936
2803 5903357 8927082 11359313
2804 6156052 9245854 11525403
2805 6453374 9715013 11758242
2806 6931787 10122108 11556522
2807 7374612 10491619 11451103
2808 7591438 10434163 11367689
2809 7868382 10679184 11275455
2810 8115126 11101044 11343962
2811 8034145 11076353 11489994
2812 7706605 10862363 11669037
2813 7819446 11051174 11672431
2814 7501774 10647120 11514448
2815 7598670 10888054 11689246
2816 7125077 10319047 11741080
2817 6237821 9551440 11727388
2818 5956961 9311955 11709000
2819 5859501 8979992 11618562
2820 5789891 8832635 11510467
2821 5721730 8791139 11402369
2822 5750043 8904835 11555917
2823 5838248 9228591 11831745
2824 6189849 9269425 11465980
2825 6634809 9520331 11254963
2826 6763319 9805803 11459047
2827 7359669 10117233 11255450
2828 7458174 10766832 11730134
2829 7758023 11037138 11593226
2830 7858563 10946163 11593020
2831 7938300 10979471 11548520
2832 7909060 10954972 11452004
2833 7742810 10989032 11674588
2834 7427634 10528545 11652434
2835 6864685 10338355 11927211
2836 6652256 10127692 11838538
2837 6309367 9690612 11784983
2838 6036143 9327974 11738154
2839 5785170 8993401 11563579
2840 5735044 8648581 11301715
2841 5693249 8531174 11314692
2842 5762953 8772717 11476118
2843 6121827 9018628 11226930
2844 6471846 9224224 11111115
2845 6445452 9250924 11313903
2846 6753054 9647934 11372562
2847 7260131 10233903 11317209
2848 7619302 10696970 11536148
2849 7897636 10895307 11462568
2850 8072625 10934183 11286818
2851 8026817 11033340 11426073
2852 7862691 11072613 11696378
2853 7691084 10932955 11768089
2854 7406850 10797068 11751943
2855 7097069 10451532 11776573
2856 6810265 10025888 11712107
2857 6601103 9595515 11434584
2858 6400624 9213011 11191914
2859 6262269 8924436 11122129
2860 6145710 8774283 11126555
2861 6140550 8690171 11010410
2862 6127822 8807264 11064773
2863 6080475 8560146 10928818
2864 6425072 8817858 10868506
2865 6873752 9292218 10790589
2866 7179178 9642730 10816338
2867 7708145 10156049 10908970
2868 8025693 10325455 10769499
2869 8205119 10667401 10873620
2870 8323354 10909450 11030962
2871 8532476 11163903 11172533
2872 8582224 11164162 11063431
2873 8377950 11214142 11200913
2874 8230887 11068082 11324588
2875 7977486 11078073 11589116
2876 7680597 11130115 11859562
2877 7282815 10979170 12128882
2878 7108808 10823427 12277493
2879 6929752 10871398 12454941
2880 6819808 11152022 12725721
2881 6684640 11164341 12891460
2882 7084684 11637739 13044241
2883 7391408 11834659 12854940
2884 8004476 12498118 12828030
2885 8277728 12793513 12972907
2886 8454692 13105642 13109450
2887 8955076 13657937 13088637
2888 9426631 14069724 12972610
2889 9784422 14618737 13321935
2890 10039947 15123662 13559668
2891 9990746 15256755 13696641
2892 9580709 15063813 13918877
2893 8968807 14654810 14261900
2894 8252269 13986153 14186975
2895 7832161 13441471 13969273
2896 7682837 12898817 13677608
2897 7175616 12066160 13458433
2898 6467854 11341222 13329013
2899 5906907 10919269 13386479
2900 5678326 10538312 13329618
2901 5441893 10537889 13562699
2902 5268827 10561228 13691953
2903 4978107 10273168 13677130
2904 5195412 10278385 13548081
2905 5622595 10528024 13271789
2906 5819638 10663590 13171005
2907 6213088 11073110 13255505
2908 6470278 11343750 13396877
2909 6858238 11678072 13153321
2910 7264929 11785275 12910803
2911 7454489 11615273 12637438
2912 7460008 11305595 12338385
2913 7282736 11213076 12272803
2914 7029207 10954899 12348523
2915 6872717 10725956 12370901
2916 6651356 10552188 12387665
2917 6222855 10280476 12452390
2918 5950162 10109574 12664964
2919 5632290 9875999 12750437
2920 5442460 9680355 12635724
2921 5330319 9531969 12574158
2922 5520563 9759220 12690602
2923 5947288 9815974 12339809
2924 6145407 10048406 12251791
2925 6600130 10185624 11942219
2926 6749982 10382741 12079109
2927 7233981 10815229 11978130
2928 7349723 11071440 12063285
2929 7805541 11238915 11877620
2930 7879503 11336614 11963196
2931 8044703 11402923 11712883
2932 8125456 11518747 11767878
2933 7869074 11563050 12178557
2934 7494692 11146188 12163216
2935 7193160 10636462 11822969
2936 7043283 10369385 11731378
2937 6831731 10032716 11736714
2938 6449211 9675275 11690017
2939 6045071 9356603 11722711
2940 5658512 8910878 11721397
2941 5647579 8779318 11606155
2942 5918328 8925406 11407242
2943 6164793 9242122 11433427
2944 6303875 9226219 11423553
2945 6437360 9358445 11401473
2946 6603150 9708055 11420958
2947 7187079 10219421 11414846
2948 7425709 10671297 11713003
2949 7575584 10802443 11665234
2950 7824229 11030541 11557419
2951 8233898 11194661 11406331
2952 8067310 11021672 11458770
2953 7713737 10903788 11601156
2954 7382343 10605024 11589507
2955 7353907 10587966 11682562
2956 7203888 10539975 11823182
2957 6684354 10031158 11749253
2958 6357178 9598463 11644207
2959 6250443 9243606 11439350
2960 6238306 9115370 11383750
2961 6027393 9113042 11449127
2962 6059989 8978305 11371327
2963 6155120 8883524 11221049
2964 6241642 9068328 11221748
2965 6470601 9461109 11347145
2966 6870444 9696736 11310694
2967 7415209 10235544 11267480
2968 7926476 10689842 11105767
2969 8130520 10773102 11054320
2970 8318942 11158285 11330852
2971 8253147 11489260 11722541
2972 7855717 11174623 11606520
2973 7665900 10867316 11636827
2974 7735704 10863378 11620219
2975 7584359 10766904 11594361
2976 7174420 10369922 11626694
2977 6521124 9786455 11748981
2978 6562560 9493685 11385372
2979 6319306 9122345 11201896
2980 6125588 8831483 11103279
2981 6182534 8808183 11130962
2982 6218551 9106255 11321224
2983 6134618 8923269 11140561
2984 6405627 9208570 11224224
2985 6750678 9553539 11290095
2986 7108763 9778576 11067491
2987 7561719 10405828 11227858
2988 7791579 10450658 11126637
2989 7933289 10566332 11092588
2990 8243171 11045807 11164396
2991 8211253 11199901 11411777
2992 8254472 11060140 11299405
2993 8089125 11139289 11535569
2994 7650241 11029499 11765890
2995 7465500 10655472 11594872
2996 7263581 10222107 11488315
2997 6685465 9872657 11605168
2998 6508376 9662563 11515418
2999 6188225 9155474 11444051
3000 5997252 8743413 11125230
3001 6036020 8648180 10994920
3002 6068932 8733034 11121846
3003 6325447 8749174 10889321
3004 6614181 9129266 10945203
3005 6947309 9480459 10931090
3006 6917353 9567050 11128632
3007 7328462 10027880 11201370
3008 7732881 10666917 11311537
3009 7923779 10965456 11372500
3010 8224523 11201979 11498307
3011 8469007 11398480 11428837
3012 8435402 11697338 11691108
3013 8152950 11461730 11740589
3014 7823670 10827645 11542830
3015 7414811 10367291 11398939
3016 7203271 10133182 11360700
3017 6702069 9755888 11485687
3018 6565715 9581098 11497793
3019 6508252 9542389 11361104
3020 6296232 9415744 11471222
3021 6229129 9168344 11424406
3022 6394429 9062505 11138937
3023 6267151 9104702 11203187
3024 6447128 9343763 11322493
3025 6861080 9582941 11225787
3026 7314815 10077479 11167806
3027 7602506 10583119 11393109
3028 7590242 10681510 11528920
3029 8001590 10896360 11376852
3030 8267593 11228442 11392636
3031 8343263 11270385 11294851
3032 8332099 11127249 11313548
3033 8286584 11082519 11291048
3034 8083545 11049773 11343449
3035 7827046 10947606 11564268
3036 7536546 10675788 11700338
3037 6921205 10127581 11635459
3038 6644529 9739074 11474247
3039 6392823 9511791 11578331
3040 6200479 9272507 11501092
3041 6329619 9192757 11231925
3042 6398419 9209771 11203160
3043 6501572 9379127 11326814
3044 6703016 9366818 11113583
3045 7079379 9512996 10781538
3046 7377944 9904135 10931085
3047 7652030 10461540 11359597
3048 8021027 11008530 11447530
3049 8220790 11238413 11369295
3050 8794969 11563172 11186760
3051 8881117 11670234 11327269
3052 8670076 11638121 11452526
3053 8338510 11574210 11649595
3054 7864393 11209174 11836068
3055 7661895 10822795 11657243
3056 7640618 10913639 11598494
3057 7481208 10522736 11427522
3058 7250133 10120979 11413077
3059 6803162 9609375 11299028
3060 6342909 9290120 11310028
3061 6448145 9360382 11384074
3062 6512931 9549955 11539036
3063 6688227 9811171 11483064
3064 6812843 9767075 11278198
3065 7189748 10131055 11392915
3066 7596944 10616275 11496446
3067 8011019 11172979 11478249
3068 8139273 11370868 11651778
3069 8296172 11436061 11588578
3070 8807612 11818127 11429414
3071 8899820 11693968 11140002
3072 8962981 11718424 11189835
3073 8898257 11670566 11346061
3074 8490229 11353755 11234644
3075 8309358 11340375 11447772
3076 8041462 11164196 11672230
3077 7384201 10588180 11708902
3078 7171906 10406868 11590715
3079 6941512 10188711 11720575
3080 6591190 9894432 11814313
3081 6800167 9773393 11441266
3082 6898389 9805326 11309386
3083 7019461 9930117 11359432
3084 7334114 10111171 11261749
3085 7687738 10634583 11324778
3086 7965914 10857001 11296991
3087 8244199 11096777 11319660
3088 8185943 11119545 11383666
3089 8536666 11672130 11440950
3090 9033627 12216609 11599565
3091 9314123 12487758 11633493
3092 9130341 12033918 11389577
3093 8767539 11796389 11379672
3094 8692523 11646227 11413590
3095 8481467 11495504 11507725
3096 8036830 11277965 11691265
3097 7416334 10723776 11694723
3098 7256521 10534230 11709846
3099 7280479 10321594 11514917
3100 7110998 10180209 11488186
3101 6962703 10041589 11485813
3102 7034368 10000212 11488507
3103 7130279 10201597 11526941
3104 7354401 10461296 11437012
3105 7712463 10733256 11505975
3106 8062275 10911249 11319483
3107 8628245 11384842 11152448
3108 8624509 11632760 11391894
3109 8839434 11903828 11556639
3110 9073345 12264581 11648171
3111 9147707 12466063 11668753
3112 9141450 12439353 11715814
3113 9064535 12385699 11831982
3114 8903122 12245110 11780356
3115 8570055 11805704 11597100
3116 8143889 11296784 11653949
3117 7761278 10888571 11662166
3118 7553564 10674487 11523047
3119 7268063 10515033 11619703
3120 7002512 10204954 11696501
3121 6926647 10123820 11717063
3122 7026998 9984400 11339765
3123 7034787 9779038 11123227
3124 7234204 9971304 11208386
3125 7540131 10343572 11243499
3126 7918833 10844730 11280996
3127 8217575 11299285 11496035
3128 8426591 11601287 11699175
3129 8594306 11689068 11457509
3130 8764911 11916498 11523887
3131 8703837 11909365 11673987
3132 8482368 11700949 11713112
3133 8238596 11567267 11727014
3134 8174528 11380459 11633516
3135 8015562 11076517 11551605
3136 7825764 10789523 11444358
3137 7174087 10272388 11475477
3138 6527311 9974603 11913568
3139 6370460 9633835 11789861
3140 6474437 9386420 11298002
3141 6642014 9319338 11106352
3142 6510411 9275342 11226677
3143 6419126 9184239 11253314
3144 6829957 9521026 11074736
3145 7485359 10037329 10988705
3146 7624661 10342220 11228378
3147 7858169 10550363 11150108
3148 8213518 10693518 10821515
3149 8224045 10862207 11119544
3150 8261083 11059198 11272806
3151 8529870 11327550 11200439
3152 8684250 11529364 11197330
3153 8504765 11148368 11083462
3154 8450118 11115092 11184852
3155 8091370 10888107 11167558
3156 7477567 10344874 11281952
3157 6701301 9546103 11362616
3158 6363571 9222125 11279471
3159 6203308 8889868 11070012
3160 5951351 8789772 11284838
3161 5937852 8719684 11280803
3162 6071164 8710595 11075369
3163 6160540 8804503 10985735
3164 6279485 8873686 11042744
3165 6532987 8992604 10932349
3166 7084060 9399595 10654948
3167 7714569 9991301 10673609
3168 7612006 10205200 11137237
3169 7535833 10365329 11291779
3170 7990178 10542004 10940567
3171 7957905 10520215 10942659
3172 8019566 10575191 11065524
3173 7952285 10551447 11038839
3174 7691420 10416434 11097352
3175 7237214 10050680 11306450
3176 6964329 9733155 11251388
3177 6590982 9372774 11195739
3178 6279234 9150978 11248758
3179 6042231 8696726 11158647
3180 5973009 8376063 10802111
3181 5937414 8504783 10952362
3182 5840429 8456902 11036808
3183 5842426 8418102 11015298
3184 6164883 8513657 10734119
3185 6452862 8821153 10751114
3186 6761798 9129323 10790564
3187 7230348 9492170 10796118
3188 7309787 9652609 10710008
3189 7669373 9965146 10690992
3190 7968239 10159480 10723367
3191 7979361 10218506 10711734
3192 7978619 10489037 10931497
3193 7992052 10484202 10913845
3194 7531998 10194976 11198360
3195 6985471 9779575 11255743
3196 6981942 9462706 10807180
3197 6700197 9062664 10832226
3198 6456788 8760681 10852195
3199 6084106 8437892 10773387
3200 5820638 8029479 10576894
3201 5722079 8006490 10789190
3202 5966582 8367508 10827137
3203 5969917 8371495 10766797
3204 6153956 8504967 10786080
3205 6427705 8697395 10731493
3206 6807956 9140243 10747251
3207 7393616 9833724 10809772
3208 7515809 9894893 10830439
3209 7610825 9893047 10803369
3210 7817417 10281741 10895727
3211 7614249 10261244 11031632
3212 7677147 10425522 11241844
3213 7921286 10291342 10875134
3214 7695765 10211755 10897016
3215 7424427 9809936 10773893
3216 7013128 9506375 10995956
3217 6684242 9024816 10779656
3218 6468058 8820825 10727604
3219 6150073 8622987 10916584
3220 5807326 8248698 10965880
3221 5705475 8050180 10696478
3222 5796817 8436930 10997916
3223 5867489 8529413 11124014
3224 6085074 8918648 11226378
3225 6367876 9013269 11010372
3226 6578118 8757419 10553713
3227 7146079 8935875 10271257
3228 7485172 9432944 10335121
3229 7729357 9986644 10629730
3230 7992362 10378973 10834955
3231 8267778 10462066 10729379
3232 7926919 10376704 10852627
3233 7635477 10326423 11109508
3234 7448204 10129425 11219261
3235 7344339 9778274 10922212
3236 7205564 9561436 10812615
3237 6546626 9092582 11012578
3238 6282809 8736661 10962772
3239 6121552 8354283 10673981
3240 5874053 8126487 10626085
3241 5883578 8207655 10785770
3242 6070313 8231526 10628329
3243 6060128 8337193 10685211
3244 6104083 8436142 10634760
3245 6469321 8895053 10954093
3246 6811918 9181731 10749490
3247 7434616 9584466 10475818
3248 7393827 9645727 10669567
3249 7644636 9868783 10713065
3250 7803672 10242028 10868023
3251 8131553 10534690 10742716
3252 8476470 10644405 10608011
3253 8057937 10390494 10891620
3254 7757239 10149221 10771266
3255 7674269 10114687 10791671
3256 7321209 9878161 11084712
3257 6442827 9075070 11159267
3258 6087135 8691557 11021969
3259 5906614 8394700 10893963
3260 5996896 7997193 10491919
3261 5914131 7776095 10341683
3262 5790857 7889273 10454413
3263 5993871 7967855 10422284
3264 6225208 8229107 10437095
3265 6656756 8654567 10389562
3266 6767134 8889488 10471992
3267 7147244 9282225 10585603
3268 7610477 9850658 10720244
3269 7819341 10275712 10816303
3270 7906774 10350845 10914833
3271 7960559 10261197 10750867
3272 8001894 10286811 10705958
3273 7914065 10265959 10736695
3274 7619408 10115734 10973580
3275 7316369 9867675 11056337
3276 7094704 9593950 10904912
3277 6583203 9032787 10830884
3278 6488779 8887842 10930979
3279 6162855 8477734 10800918
3280 5675069 7941256 10645172
3281 5573031 7543262 10378515
3282 5562454 7552134 10487733
3283 5816222 7887058 10569607
3284 6262881 8452715 10565366
3285 6677561 8867814 10643637
3286 6739257 8925212 10692796
3287 7377873 9519762 10540686
3288 7663399 9997499 10686574
3289 7739893 10008883 10767228
3290 7883293 10176426 10782903
3291 7833344 10237206 10779227
3292 7785479 10133099 10755120
3293 7745381 10086936 10863391
3294 7552142 9882989 10801660
3295 7129178 9829958 11096560
3296 6790815 9521548 11167957
3297 6579306 8809890 10738436
3298 6335360 8480108 10649225
3299 5968136 8347547 10815399
3300 5756319 8149921 10871271
3301 5873378 8038612 10601261
3302 5992926 8021900 10430951
3303 5922268 7964765 10444459
3304 6088982 8303526 10678560
3305 6550377 8729104 10641915
3306 6697734 9044570 10702666
3307 7199433 9492365 10771512
3308 7103201 9632186 11031275
3309 7329899 9810029 10883564
3310 7769915 10198098 10807142
3311 8097880 10446283 10791303
3312 8220080 10300084 10561940
3313 8045419 10301581 10681154
3314 7588493 9844313 10684153
3315 7306928 9472714 10667900
3316 7170850 9395335 10678027
3317 6705341 8979951 10658426
3318 6430429 8571991 10601182
3319 6167754 8262957 10611775
3320 5927382 8186750 10659757
3321 5847743 8251541 10801696
3322 5904986 8273635 10865978
3323 6159503 8134005 10466022
3324 6308505 8261385 10363827
3325 6434131 8418295 10408128
3326 6880045 8823741 10398433
3327 7420452 9381283 10397149
3328 7438548 9843693 10746411
3329 7494444 10065203 11015815
3330 7868372 10432790 11060795
3331 8233882 10545867 10683924
3332 8185687 10341753 10521472
3333 7968788 10108895 10668080
3334 7578683 9873154 10824300
3335 7188525 9689031 10884203
3336 6984713 9524175 10963107
3337 6565934 8739481 10659491
3338 6534997 8466173 10357425
3339 6341824 8369899 10420318
3340 6043347 8061239 10461352
3341 5925686 7997515 10592467
3342 5971419 8119863 10525247
3343 6038897 8121678 10421582
3344 6275494 8298901 10448393
3345 6677249 8451239 10256540
3346 6909620 8741581 10218971
3347 7517747 9390132 10282697
3348 7461122 9707458 10789420
3349 7648779 10062834 10854711
3350 7895075 10178911 10675883
3351 7831659 10067036 10686143
3352 7573669 9941573 10912348
3353 7657622 9885736 10589254
3354 7599169 9806095 10571282
3355 7385543 9556813 10740538
3356 7242203 9381596 10601403
3357 6854748 8811044 10388878
3358 6374321 8364866 10435683
3359 6100257 8041389 10481885
3360 5752871 7888676 10597534
3361 5619108 7726486 10488685
3362 5695457 7796669 10561839
3363 5826457 7859297 10494588
3364 6186873 8139608 10318008
3365 6448240 8585201 10480511
3366 6672875 8687533 10460380
3367 7075486 9051241 10414220
3368 7407098 9469329 10452947
3369 7610271 9698149 10505872
3370 7969860 10023369 10528309
3371 7984020 10062987 10552647
3372 7793407 10089105 10664944
3373 7826237 10202158 10826084
3374 7534744 9826810 10788345
3375 7404248 9687320 10691632
3376 7062236 9410880 10758860
3377 6412193 8715721 10823886
3378 6183340 8491186 10829634
3379 5989467 8309631 10737680
3380 5815265 8003384 10564724
3381 6015386 8106938 10618065
3382 6047094 8156590 10532972
3383 6116230 8196257 10407257
3384 6238211 8113356 10310167
3385 6641197 8386164 10291792
3386 6800311 8878910 10479419
3387 7347941 9371270 10356749
3388 7399984 9378196 10446806
3389 7545816 9437056 10417108
3390 7811502 9857311 10428298
3391 7928609 9980963 10462959
3392 7931660 9944153 10503263
3393 7912562 9865703 10418496
3394 7670604 9801487 10561109
3395 7228651 9475262 10679320
3396 6947045 8981179 10553003
3397 6438634 8622077 10623602
3398 6263275 8505412 10597858
3399 6155573 8354461 10712697
3400 5822363 7950856 10672812
3401 5961172 7900091 10339226
3402 5933164 7820333 10309464
3403 5849461 7723466 10324796
3404 6070430 7885755 10276624
3405 6181875 8189766 10411939
3406 6312362 8384060 10470845
3407 7135736 9015765 10372177
3408 7329136 9322234 10414876
3409 7537387 9630746 10426922
3410 7788274 9843520 10522437
3411 7940414 10031262 10538085
3412 8123879 10209184 10439010
3413 7840296 10075008 10685321
3414 7466687 9685125 10761778
3415 7434367 9338863 10354827
3416 7459045 9243626 10147209
3417 6808565 8737176 10398610
3418 6487818 8517413 10568227
3419 6287771 8321480 10488723
3420 6015551 8034952 10434994
3421 5793507 7782182 10488215
3422 5705798 7805803 10593738
3423 5731731 7816126 10450560
3424 6266014 7958989 10069794
3425 6796053 8353972 10095446
3426 6960568 8631550 10130282
3427 7348514 9061691 10117738
3428 7520448 9195967 10089220
3429 7786515 9562987 10257738
3430 7968227 9898902 10356838
3431 7937753 10060263 10523803
3432 7794415 9845244 10523870
3433 7920163 9858946 10453003
3434 7718740 9675460 10381757
3435 7292739 9387369 10501887
3436 7032703 9212326 10676037
3437 6648466 8823829 10688472
3438 6584906 8845900 10603806
3439 6300042 8350054 10486124
3440 5852664 7688746 10355716
3441 5674751 7368449 10156836
3442 5762575 7693486 10326688
3443 5905352 7736180 10280599
3444 6197211 7812812 10129419
3445 6560337 8260847 10109332
3446 6811723 8509154 10115524
3447 7281245 9005909 10257391
3448 7474504 9495317 10487819
3449 7807755 9703365 10332059
3450 7889221 9787377 10347042
3451 7952350 9963017 10543437
3452 7727572 9652629 10350419
3453 7847375 9774002 10281638
3454 7545292 9510595 10406682
3455 7373240 9296542 10429305
3456 7190834 9288445 10555958
3457 6664920 8738369 10498235
3458 6384588 8347655 10491018
3459 6017766 7935568 10371955
3460 5722368 7722528 10356934
3461 5796181 7584847 10193148
3462 5941135 7590564 10147706
3463 5820300 7632155 10275698
3464 5945992 8004668 10432419
3465 6244261 8151801 10388737
3466 6767724 8575626 10314761
3467 7433961 9143936 10090935
3468 7689250 9255484 9984953
3469 7931934 9672468 10265730
3470 8165699 9900852 10225222
3471 7897172 9929016 10415892
3472 8037447 9888566 10301274
3473 7922449 9852475 10466309
3474 7665249 9633516 10402564
3475 7285211 9411238 10502536
3476 7089639 9124808 10470455
3477 6721610 8640305 10428816
3478 6534485 8543038 10426069
3479 6241655 8400910 10535997
3480 5975830 7947766 10441798
3481 5952730 7895585 10390725
3482 5873243 7909681 10429873
3483 5874132 7882058 10327631
3484 6283344 7967333 10192108
3485 6558873 8089413 9937780
3486 6821488 8322447 9844560
3487 7414240 8936583 9990462
3488 7615816 9147244 10003655
3489 7780010 9451925 10098764
3490 7966534 9781891 10227839
3491 7893055 9988762 10610298
3492 7876089 9968976 10643017
3493 7739634 9956499 10585203
3494 7652836 9489974 10275195
3495 7333305 8881262 10087495
3496 6857436 8548739 10165380
3497 6419887 8186497 10179598
3498 6205927 8063278 10328242
3499 5847816 7988165 10592293
3500 5958795 7989242 10406568
3501 6114158 7871448 10126660
3502 5916578 7658513 10192278
3503 6042526 7697199 10097553
3504 6255221 8031318 10196047
3505 6407475 8241920 10191156
3506 6584734 8439936 10333595
3507 7037721 8887302 10261376
3508 7622492 9332068 9998132
3509 8029413 9463664 9870365
3510 8249331 9848072 10139380
3511 8076730 10026012 10381501
3512 7910479 9843466 10377808
3513 7808206 9696389 10431206
3514 7447757 9406667 10447602
3515 7192161 9493423 10707319
3516 7095964 9410327 10749363
3517 6717040 8656525 10474779
3518 6481911 8302704 10300422
3519 6274366 8104983 10199527
3520 5900339 7804144 10363826
3521 5825622 7650616 10309658
3522 5971417 7692462 10149302
3523 6118170 7957294 10142075
3524 6326902 8185765 10336782
3525 6651323 8334602 10126154
3526 6817208 8623427 10210241
3527 7195077 9109755 10304262
3528 7584086 9416125 10371121
3529 7620424 9639061 10439991
3530 7880440 10038388 10497182
3531 8075449 10094465 10444924
3532 8037004 9962206 10456934
3533 7962662 9941928 10395866
3534 7758195 9715009 10389099
3535 7414496 9479830 10603674
3536 7055472 9114221 10574987
3537 6435756 8504345 10463864
3538 6246706 8229377 10403741
3539 6064291 7908607 10356226
3540 5998659 7715334 10178556
3541 6111313 7811979 10070181
3542 6380744 8270339 10321362
3543 6140698 7932776 10311733
3544 6246340 7857639 10025298
3545 6687681 8353280 9951769
3546 7211624 8604137 9878503
3547 7653881 8987079 9811400
3548 7812929 9334239 9878452
3549 7893717 9653824 10165204
3550 8000961 9964922 10468892
3551 8065338 10051312 10457002
3552 8094961 10031969 10287043
3553 8022959 9975145 10419371
3554 7805763 9677619 10392606
3555 7544006 9296905 10223330
3556 7250421 9187150 10323658
3557 7064006 8966373 10383931
3558 6687724 8453283 10278851
3559 6187691 8048936 10277135
3560 5931011 7778801 10280170
3561 6031005 7769693 10282332
3562 6101227 7753938 10074146
3563 6224051 7812436 9985179
3564 6264468 8016038 10223085
3565 6607927 8261305 10166992
3566 7073534 8564210 9854726
3567 7657071 9068273 9839488
3568 7683009 9219745 10027770
3569 7624861 9304493 10136860
3570 8018421 9822442 10209909
3571 8063822 9957093 10268201
3572 8270104 9909060 10173404
3573 8151047 9950184 10275954
3574 7817264 9627660 10194614
3575 7577141 9293347 10134315
3576 7365036 9082957 10271833
3577 6601822 8453710 10314242
3578 6437512 8194622 10151526
3579 6157135 7754053 10111405
3580 5922679 7606506 10206015
3581 5971279 7732943 10174250
3582 5995353 7667137 10071624
3583 6086835 7679763 10104683
3584 6402692 7816011 9899364
3585 6478633 7979696 9920433
3586 6590614 8327673 10188796
3587 7299127 8788357 9968390
3588 7601994 8907131 9752957
3589 7759607 9481083 10124202
3590 8239002 9917603 10105126
3591 8342658 10145591 10267460
3592 8147919 9993421 10262944
3593 8182681 9875011 10099786
3594 7988847 9501030 10024204
3595 7668687 9306758 10122974
3596 7347209 9377200 10371691
3597 6755140 8806317 10540629
3598 6408128 8155815 10259456
3599 6066608 7708083 10107301
3600 5732868 7375739 9992677
3601 5782717 7253228 9946974
3602 5855030 7299246 9960537
3603 5979937 7473071 9803743
3604 6334316 7701082 9813629
3605 6634678 7898182 9811211
3606 6938461 8278780 9792086
3607 7188450 8750425 9968741
3608 7378333 9128934 10232558
3609 7794309 9304689 10018680
3610 8146193 9572260 9822329
3611 8152314 9642832 9894379
3612 7924692 9573907 10187229
3613 7749621 9549055 10324678
3614 7403073 9273174 10230284
3615 7485870 9149479 10107611
3616 7350185 8976006 10155941
3617 6592878 8249947 10060158
3618 6193374 7973143 10150354
3619 6026598 7487094 9943383
3620 5922659 7376396 9944391
3621 6063273 7566292 9969449
3622 6062443 7723986 10085478
3623 6021255 7662659 10160529
3624 6217584 7817838 10047180
3625 6483623 8050984 9949012
3626 6754434 8296724 9993814
3627 7226193 8631581 9930159
3628 7554560 8901992 9810550
3629 7727732 9195141 9830127
3630 8089950 9405679 9821676
3631 8036797 9395609 9942690
3632 8103004 9730059 9980068
3633 8091227 9827521 10119994
3634 8043302 9614268 10047596
3635 7539603 9142720 10108752
3636 7006544 8874098 10267561
3637 6534521 8366749 10299962
3638 6577966 8185444 10130476
3639 6372787 8013220 10023908
3640 5831931 7448907 9965243
3641 5674052 7369753 10195698
3642 5892272 7567565 10115063
3643 6137310 7491198 9715268
3644 6553947 7853270 9744878
3645 6749222 8054210 9834858
3646 7004972 8357827 9746457
3647 7383272 8777005 9772954
3648 7446159 9063587 10059010
3649 7733500 9270544 10023700
3650 7918925 9593862 10088237
3651 7985408 9741184 10119038
3652 7992450 9651015 10162504
3653 8058423 9832699 10306377
3654 7888947 9519549 10020154
3655 7423821 9241627 10241009
3656 7217453 8873088 10166672
3657 6670832 8188356 9997637
3658 6292273 7945013 10068226
3659 6066729 7616451 10026777
3660 5969838 7290111 9849045
3661 5937787 7323579 9786392
3662 5896665 7386262 9862089
3663 5935775 7290912 9846364
3664 6215322 7497380 9737800
3665 6560700 7815941 9629240
3666 6816143 8017792 9622107
3667 7159101 8463380 9833893
3668 7507736 8918788 9823012
3669 7676532 9298216 10013974
3670 7930522 9596261 10171747
3671 7841619 9571733 10280115
3672 7971198 9703225 10164363
3673 7806491 9687428 10294271
3674 7470867 9147293 10249014
3675 7242293 8812306 10021170
3676 7116509 8747996 9988404
3677 6619448 8252918 10077780
3678 6405732 7892536 10027944
3679 6057295 7630551 10017151
3680 5831350 7478147 10031443
3681 6111006 7455049 9828607
3682 6121226 7318956 9679517
3683 6173410 7304343 9487885
3684 6585065 7680641 9485357
3685 6943543 7701819 9251136
3686 7010691 7700794 9133060
3687 7496495 8205350 9030877
3688 7766747 8473307 9095881
3689 8037778 8836416 9331444
3690 8316873 9462838 9556386
3691 8547043 9678997 9482413
3692 8590564 9379551 9305472
3693 8460678 9416459 9489939
3694 8343047 9372778 9455339
3695 8101537 9208721 9578426
3696 7728608 8980055 9770479
3697 7321821 8755707 9909768
3698 7321805 8839830 9900424
3699 7058719 8632735 10053911
3700 6661629 8348233 10249537
3701 6733829 8671509 10335622
3702 6793661 9215813 10802609
3703 7192319 9920058 11171718
3704 7777069 10415231 11083298
3705 8044819 10673005 11057934
3706 8155209 10822394 11074706
3707 8746538 11623636 11333943
3708 9286564 12417769 11537032
3709 9677503 12814603 11479442
3710 10129475 13068921 11385272
3711 10226694 13120383 11421293
3712 10150175 13503823 11821034
3713 9838002 13827403 12380117
3714 9384394 13554356 12691742
3715 8864889 13015272 12677556
3716 8291138 12368929 12526475
3717 7393795 11329322 12350323
3718 7042923 11033337 12476746
3719 6710023 10373304 12153762
3720 6156929 9795307 12046947
3721 5844152 9579842 12262151
3722 5719908 9225748 11960886
3723 5478621 8911934 11815419
3724 5602872 9014441 11804609
3725 5840882 9321665 12005022
3726 5971430 9550856 12071188
3727 6681475 10191061 11868672
3728 7266656 10555452 11729424
3729 7366983 10490789 11667042
3730 7401281 10533289 11557656
3731 7357172 10165866 11116918
3732 7297265 9922357 11097949
3733 7109230 9720609 11150115
3734 7003242 9829975 11177660
3735 6913619 9627006 11114134
3736 6902186 9454623 11086418
3737 6481608 8976420 11030051
3738 6162618 8824789 11072092
3739 5938555 8511484 11005952
3740 5782509 8256200 11010026
3741 5810458 8446687 11078402
3742 5878031 8426312 10887766
3743 5817807 8251747 10859540
3744 6172818 8440874 10796866
3745 6449297 8753732 10749464
3746 6668846 8965872 10708343
3747 7133461 9520038 10868760
3748 7339702 9835131 10973938
3749 7813223 10103469 10632868
3750 8155069 10052186 10365011
3751 8094991 9938079 10366026
3752 8103859 10133897 10499186
3753 8005006 10237502 10619696
3754 7553163 9647146 10536211
3755 7491774 9251148 10285862
3756 7382397 9201808 10250526
3757 6817782 8716417 10335004
3758 6498039 8364396 10367136
3759 6206408 7985289 10305035
3760 6020784 7664208 10015383
3761 6029248 7390034 9793667
3762 6013351 7456607 9959525
3763 6059257 7553195 9952857
3764 6293546 7794035 9926668
3765 6749426 8086855 9803186
3766 7176695 8266642 9600640
3767 7734846 9023697 9693070
3768 7860833 9307947 9866635
3769 7994048 9386583 9868770
3770 8304366 9748867 9967594
3771 8367291 9923325 9931379
3772 8465611 10233659 10169026
3773 8466840 9959878 10021034
3774 7991902 9447201 9916817
3775 7516494 9075454 9927561
3776 7315473 8698175 9894439
3777 6828605 8198463 9890694
3778 6690122 8074272 9806572
3779 6463317 7875571 9826208
3780 6272376 7405291 9661807
3781 6171822 7299371 9573772
3782 6202663 7504522 9680369
3783 6191423 7465579 9723683
3784 6411732 7557892 9617794
3785 7137453 8084761 9383657
3786 7241268 8665460 9813765
3787 7735739 8957311 9710126
3788 8032113 9205548 9698217
3789 8161410 9399360 9602299
3790 8386949 9758803 9781770
3791 8458817 10012473 10081201
3792 8449078 9855823 9868766
3793 8454937 9632320 9569812
3794 8051919 9366072 9820142
3795 7685118 9203499 10018052
3796 7564498 8994401 9810212
3797 7015869 8474865 9793729
3798 6662237 7992147 9861067
3799 6404448 7852670 9921737
3800 6454466 7610511 9490662
3801 6524485 7593092 9507426
3802 6481341 7494021 9526024
3803 6542650 7538515 9413303
3804 6593976 7888285 9680053
3805 6979930 8135176 9607227
3806 7267083 8264676 9460540
3807 7701223 8759269 9492901
3808 7818650 9201205 9772628
3809 8208157 9498520 9805135
3810 8565017 9714626 9630528
3811 8397157 9687561 9666399
3812 8514777 9703808 9608994
3813 8431972 9696494 9824439
3814 8202590 9665411 9884906
3815 7968042 9238367 9715977
3816 7646969 8908431 9749848
3817 7065758 8385166 9848862
3818 6816318 8186586 9806084
3819 6438066 8052293 9978669
3820 6429826 7753937 9765350
3821 6406581 7410133 9503481
3822 6414596 7469878 9433882
3823 6372878 7558133 9604516
3824 6658720 7755158 9588805
3825 7010947 8124779 9493533
3826 7519159 8603825 9446173
3827 8052389 9197827 9550652
3828 8093801 9263229 9690462
3829 8087599 9402700 9699718
3830 8492480 9738713 9664129
3831 8674038 9896220 9743399
3832 8484875 9985256 10013208
3833 8244555 9897939 10008779
3834 8003643 9670081 10150459
3835 7730436 9318946 10090147
3836 7636534 9145122 9961668
3837 7276036 8660276 9810413
3838 7021403 8176464 9676653
3839 6654981 7748325 9679743
3840 6307989 7627749 9743996
3841 6580487 7991052 9808423
3842 6640934 8055647 9858072
3843 6610742 7924305 9771206
3844 6884891 8083139 9545020
3845 7146912 8155135 9469123
3846 7298081 8418567 9609323
3847 7670708 8830646 9560665
3848 8033265 9325325 9647253
3849 8494577 9533610 9518745
3850 8703524 9882982 9701013
3851 8711434 10000618 9648138
3852 8670513 10014943 9809229
3853 8421974 9834566 9932880
3854 8154028 9493771 9829777
3855 8099188 9415829 9680493
3856 7714536 9182929 9955982
3857 7230060 8822549 10118824
3858 7258792 8979575 10155682
3859 7013300 8589730 9950655
3860 6669656 7765559 9597377
3861 6537281 7389414 9358944
3862 6594265 7668198 9492073
3863 6891353 7943431 9493621
3864 7114184 8183833 9600395
3865 7092834 8336846 9761692
3866 7110525 8593496 9795152
3867 7795276 9199762 9857615
3868 8225316 9567774 9797119
3869 8676849 9850181 9562273
3870 8861615 9969383 9487934
3871 8898881 10006719 9586458
3872 9032625 10085974 9574947
3873 9045514 10392529 9750548
3874 8694761 10119689 9806269
3875 8187495 9711409 10084979
3876 7851338 9427751 10070347
3877 7500941 9030405 9922809
3878 7293446 8612911 9785455
3879 7236499 8360488 9626673
3880 7011569 8249428 9662657
3881 7022993 8273286 9643716
3882 7016430 8298065 9805948
3883 6827606 8176009 9846696
3884 7135022 8540029 9798258
3885 7732091 9114055 9817220
3886 7932303 9070619 9630904
3887 8305978 9480030 9621696
3888 8600319 9788035 9555532
3889 8905861 9940526 9547642
3890 9040929 10179611 9604106
3891 9029507 10259726 9651243
3892 9002684 10428451 9789907
3893 9094378 10526860 9983328
3894 8681160 10298263 10089621
3895 8412815 10021922 10011788
3896 8411287 9982197 9958329
3897 7996608 9280116 9875017
3898 7345089 8880590 9961695
3899 7291922 8663861 9756888
3900 7034072 8085994 9532417
3901 7099223 8176898 9588105
3902 7520088 8829164 9688965
3903 7715078 8938507 9609954
3904 7722549 8724848 9501583
3905 7767219 8723444 9433729
3906 7784581 9059923 9717161
3907 8252675 9580888 9771552
3908 8602269 10035624 9987456
3909 8955982 10754841 10214359
3910 9289277 10975076 10059949
3911 9515480 10847351 9733962
3912 9754045 10817961 9536266
3913 9531031 10752511 9663637
3914 9045425 10498983 9886005
3915 8759362 10193706 9968588
3916 8552142 9989463 9924247
3917 8055138 9508862 9842451
3918 7730628 9184343 9934279
3919 7580572 9147093 10069993
3920 7513890 8889397 9789363
3921 7561514 8722882 9492794
3922 7411863 8567505 9655936
3923 7473741 8611861 9688629
3924 7579156 9016939 9835610
3925 7974268 9436523 9869485
3926 8126524 9398588 9798412
3927 8904646 10028411 9594202
3928 9208813 10435162 9658984
3929 9226674 10606657 9859023
3930 9378146 10892510 10042927
3931 9522598 10982666 9901840
3932 9565147 11061509 9902077
3933 9298289 10688427 9860452
3934 9285664 10676407 9871573
3935 9159663 10662153 9909265
3936 8772475 10256162 9922081
3937 8048940 9615208 10118907
3938 7732874 9206013 9914760
3939 7643157 9179791 9880769
3940 7378929 8776396 9853074
3941 7351116 8545036 9708441
3942 7370841 8572236 9603491
3943 7404768 8585310 9558877
3944 7581922 8770689 9694441
3945 7834009 9038087 9682442
3946 8214680 9546245 9721849
3947 8706410 10278069 9974008
3948 9179896 10530377 9846300
3949 9237216 10542206 9771626
3950 9299229 10728644 9821438
3951 9399029 10780401 9855415
3952 9545371 10940781 9949719
3953 9411673 10853998 9858994
3954 9045220 10609994 9961477
3955 8615009 10216056 10154586
3956 8292064 9968329 10167878
3957 7800469 9451750 10054581
3958 7405682 8786476 9835301
3959 7154006 8460797 9779405
3960 7020872 8269503 9696802
3961 6911697 8293831 9765216
3962 6953637 8153776 9648204
3963 6977297 7891841 9362662
3964 7180916 8130834 9342973
3965 7642144 8718867 9417611
3966 7679473 8822800 9644398
3967 8170211 9218338 9483701
3968 8371855 9596496 9677056
3969 8317058 9703510 9778576
3970 8811204 9957835 9637678
3971 8984398 10109370 9610704
3972 8843293 10216994 9758835
3973 8675979 9892394 9734562
3974 8068095 9590215 10031344
3975 7940269 9329512 9782012
3976 7855458 9090872 9612241
3977 7656842 8524213 9355549
3978 7400872 8236651 9346132
3979 6994149 8016301 9455006
3980 6628143 7564822 9413425
3981 6419424 7348643 9413292
3982 6560138 7352716 9231773
3983 6545722 7337528 9168904
3984 6823855 7627171 9232120
3985 7295719 8118259 9320644
3986 7665269 8775882 9486492
3987 8344897 9336906 9341820
3988 8358333 9179967 9315764
3989 8340582 9039989 9177114
3990 8665278 9381978 9149507
3991 8602224 9461008 9284890
3992 8674488 9621761 9491469
3993 8453942 9553291 9578559
3994 8075138 9263506 9536379
3995 7858032 8932898 9560098
3996 7714711 8734448 9538240
3997 7226890 8221449 9411603
3998 6844899 7875518 9459240
3999 6630670 7700777 9525728
4000 6285404 7159351 9347016
4001 6279372 7052612 9157151
4002 6289091 7045818 9232030
4003 6374041 7050844 9141959
4004 6580002 7210390 9038521
4005 6861454 7648055 9137485
4006 7097899 7860228 9223822
4007 7601188 8202785 9082054
4008 7875655 8555623 9037353
4009 8188793 9041029 9239900
4010 8366591 9306153 9474707
4011 8583391 9421382 9311589
4012 8532510 9436179 9318075
4013 8360881 9249716 9384032
4014 8040921 8921231 9389086
4015 7846775 8730581 9297715
4016 7519752 8625144 9527010
4017 7118578 8003948 9418108
4018 6758260 7774038 9527848
4019 6567416 7557829 9392082
4020 6263891 7100766 9290803
4021 6017402 6934432 9449862
4022 6118380 6803230 9078218
4023 6475251 7038714 8891595
4024 6901102 7386776 8918631
4025 7006570 7447764 8967424
4026 7363770 7887423 8881601
4027 7995733 8664061 9065119
4028 8167812 8863351 9191370
4029 8126771 8905085 9247692
4030 8373144 9305499 9298650
4031 8532681 9343621 9267117
4032 8573233 9347916 9321036
4033 8432123 9374388 9349292
4034 8179111 9064501 9319969
4035 7540993 8569646 9551695
4036 7345915 8325661 9488279
4037 7235759 7827624 9057148
4038 6857101 7663876 9236389
4039 6523170 7441407 9487153
4040 6233258 7225581 9470827
4041 6244335 7269457 9405831
4042 6316530 7111054 9258074
4043 6386019 7107400 9246434
4044 6638081 7247346 9004831
4045 7047065 7569555 8898207
4046 7126075 7732067 9076316
4047 7581199 8244346 9131362
4048 8129575 8745342 9003894
4049 8458649 9132889 9057506
4050 8759998 9270344 9049880
4051 8618638 9180877 8997280
4052 8589917 9421525 9179164
4053 8371798 9163400 9225909
4054 8065125 8719918 9169992
4055 7903275 8648013 9215360
4056 7426513 8390683 9375119
4057 6990986 7801725 9335225
4058 6999195 7760696 9323787
4059 6941487 7797985 9282625
4060 6395033 7197357 9221850
4061 6196473 6935866 9240804
4062 6230918 7031205 9275770
4063 6308751 7242609 9249632
4064 6725527 7447092 9168297
4065 7007522 7553724 9040385
4066 7198338 7900203 9097175
4067 7564518 8423796 9287972
4068 7765557 8539770 9264598
4069 8110262 8899488 9313099
4070 8446235 9107639 9040760
4071 8525600 9349198 9270467
4072 8543279 9332623 9338076
4073 8339194 9253409 9344271
