0 7693467 9156234 9910115
1 7851464 9259847 9713830
2 7991336 9375805 9691954
3 8060784 9349272 9731521
4 8239844 9624016 9627198
5 8300188 9514090 9611678
6 8388275 9492723 9486642
7 8298293 9542851 9514725
8 8407838 9407604 9418017
9 8399984 9367335 9255805
10 8212967 9149312 9242015
11 8081077 8942157 9252703
12 7942741 8789755 9155753
13 7967512 8782898 9180298
14 7811178 8629346 9210035
15 7952072 8682041 9026087
16 8050941 8445372 8831226
17 7963841 8340108 8709992
18 7919860 8252812 8635596
19 7953880 8085789 8574858
20 8024386 8227260 8479530
21 7997697 8163333 8585131
22 8090172 8253034 8541535
23 8026971 8458000 8766568
24 8093649 8629107 8971794
25 8165162 8777851 8882677
26 8189688 8798559 8966005
27 8155008 8683273 8980977
28 8117639 8773497 8943413
29 7864481 8711366 9229293
30 7947242 8735694 9131671
31 8034872 8773561 9034864
32 7932966 8572059 9093994
33 7855958 8443379 8866950
34 7870395 8289988 8807140
35 8014527 8251057 8623215
36 8231466 8411297 8397957
37 8302341 8305700 8429891
38 8386501 8277790 8224231
39 8171267 8195996 8367809
40 8210445 8261287 8431969
41 8409008 8545956 8404167
42 8415015 8537539 8485598
43 8537560 8611069 8455943
44 8652967 8949386 8537044
45 8613680 8905654 8745254
46 8661216 9084568 8755733
47 8688339 9119158 8742839
48 8599580 8904309 8790016
49 8441599 8951347 8850487
50 8245986 8658090 8745635
51 8318003 8492852 8598337
52 7932948 8336892 8651441
53 8115285 8264654 8557018
54 8251256 8397942 8467723
55 8199608 8207732 8349466
56 8114073 8123147 8420236
57 7897536 7984347 8396997
58 7866998 7963952 8456392
59 7550780 7664500 8566232
60 7309135 7766094 8802827
61 6896288 7662123 9215808
62 7458826 8074400 8946602
63 7979372 8482511 8857354
64 8489364 8742931 8698361
65 8611998 8835894 8505510
66 8496736 8679536 8568218
67 8850207 8866206 8394715
68 9130478 9223817 8323620
69 9404311 9166605 8151191
70 9379129 9235744 8307976
71 8989532 9159850 8507955
72 9006365 8961104 8352822
73 8912302 8893625 8240073
74 8736330 8625815 8286049
75 8733720 8535797 8189404
76 8811818 8598088 8104804
77 8982749 8634926 8035857
78 9063247 8680386 8021609
79 8772802 8550935 8149708
80 8542468 8225793 8153561
81 8527250 8356764 8105335
82 8598051 8401626 8178542
83 8617824 8347733 8096786
84 8858316 8566611 7962239
85 8941843 8631111 8123519
86 8842549 8649879 8151450
87 8840856 8851997 8386813
88 8577585 8712878 8679708
89 8365301 8839587 8780075
90 8542555 8895945 8722440
91 8809887 8867167 8442421
92 8870675 9006984 8447486
93 8714309 8878662 8613812
94 8576091 8696266 8495087
95 8449537 8606759 8455407
96 8613202 8454212 8271982
97 8611346 8451531 8112444
98 8685698 8438739 8111153
99 8540613 8218499 8096806
100 8745594 8512718 8031544
101 8648969 8523322 8236989
102 8979866 8705597 8076090
103 8993523 8915256 8209478
104 9202697 8928530 8168591
105 8901520 8755597 8162971
106 9103330 8951793 8215195
107 9150423 9068455 8316145
108 9001415 9093818 8403937
109 8992079 9045055 8453033
110 9242433 9253124 8374301
111 9229790 9371186 8427240
112 9255361 9285881 8461472
113 9154139 9277601 8394911
114 9003162 9142799 8541394
115 9025263 9043878 8432133
116 8916896 8934603 8278243
117 8701873 8529171 8231167
118 8761896 8415674 8028560
119 8792491 8575490 8115174
120 8827139 8455821 8070651
121 8987963 8626925 7908588
122 9106469 8598331 7938247
123 9062783 8648538 8002728
124 9117908 8913843 8076658
125 9245149 9039084 8226769
126 9393242 9262037 8198407
127 9268988 9259992 8372216
128 9114523 9123475 8471748
129 9220836 9261705 8314193
130 9121614 9408601 8654040
131 9089072 9343915 8671749
132 8990176 9263332 8581629
133 9193855 9221607 8475718
134 9232231 9112112 8223887
135 9064761 8970458 8235359
136 9031522 8801254 8233916
137 9047685 8900630 8174267
138 9046463 8875214 8246568
139 9065199 8808073 8155103
140 9021660 8667730 7933169
141 9236500 8815897 8012135
142 9299102 8910599 7965766
143 9509546 9216457 8008487
144 9468696 9131936 8101827
145 9354282 9372030 8326708
146 9515138 9540318 8418360
147 9157414 9409898 8642171
148 8902688 9293701 8663997
149 8723513 8952256 8619678
150 8921274 9041999 8449673
151 8955396 9012108 8377251
152 9000163 9067881 8561057
153 8763946 9001661 8565528
154 8544963 8677913 8570724
155 8265374 8376361 8476882
156 8268303 8452840 8426029
157 8395474 8412769 8429251
158 8890983 8804039 8228336
159 9247546 9215630 8260362
160 9707870 9345254 8060242
161 9985250 9649700 7978697
162 10049126 9715791 8038738
163 9968305 9682613 8168402
164 9809655 9825198 8197321
165 9926797 9765002 8264776
166 9945585 9773320 8143231
167 9804947 9729352 8275524
168 9929880 9628244 8185803
169 9871117 9810942 8212895
170 9891795 9766421 8256592
171 9605699 9538430 8342388
172 9656108 9594297 8239858
173 9568913 9464339 8321539
174 9397006 9302342 8216162
175 9382397 9125477 8067225
176 9307737 8945301 8112460
177 9249289 8926763 8042390
178 9189011 8900103 8080557
179 9216560 8828574 8033384
180 9090476 8777711 8008477
181 9156663 8838390 8113177
182 9222186 8803271 7905121
183 9373945 8891464 7833942
184 9423941 8944805 7976518
185 9401477 9089092 8017518
186 9302071 9079760 8201953
187 9269064 9059848 8174925
188 9348144 9276208 8229013
189 9382147 9214893 8292532
190 9283356 9069689 8156458
191 9212279 9082785 8167088
192 9215732 8969547 8164176
193 9463224 9082469 7951678
194 9212677 8905119 8077914
195 8906903 8646364 8107085
196 8664851 8573228 8185163
197 8636184 8325905 8105238
198 8735252 8356958 7976842
199 8714832 8503536 8114152
200 8748227 8353022 8046584
201 8791930 8504491 7979616
202 8732935 8412862 8106293
203 9089166 8683640 7960581
204 9189636 8957963 8086220
205 9101002 8741012 8107387
206 9101373 8777953 8065318
207 9120152 8779984 8022041
208 8892717 8480851 8031761
209 8831033 8543921 7989132
210 8760241 8527553 8177110
211 8787696 8323371 7890280
212 8717530 8296743 7852419
213 8557493 8125303 7959272
214 8453998 7807108 7725815
215 8376897 7733650 7692333
216 8419136 7642091 7663819
217 8384740 7553043 7507318
218 8267694 7363533 7500876
219 8269319 7243608 7363001
220 8392791 7444583 7321515
221 8451628 7446876 7456959
222 8495016 7491726 7296060
223 8365282 7431982 7465031
224 8549688 7652452 7553888
225 8787530 7929545 7467559
226 8909475 8064642 7589399
227 8995858 8239301 7669699
228 8867516 8333572 7732006
229 8945039 8329395 7803831
230 9017431 8413942 7670837
231 8864979 8328785 7820285
232 8845370 8195599 7786511
233 8760552 8179651 7678202
234 8682803 7884813 7643888
235 8515642 7621798 7478984
236 8136242 7364102 7514404
237 8111426 7176587 7536693
238 8193261 7387728 7499743
239 8160295 7267462 7465780
240 8293552 7424744 7544559
241 8422677 7584751 7497374
242 8500672 7669598 7633509
243 8455847 7705685 7602614
244 8683833 7962219 7559938
245 8830463 8127474 7726559
246 8775212 8222483 7724866
247 8855061 8271298 7782356
248 8951132 8346230 7822673
249 8973832 8333185 7690553
250 8866685 8218295 7812026
251 8904016 8132787 7554152
252 8775001 7933032 7495721
253 8686779 7687423 7503844
254 8570064 7562201 7353796
255 8486878 7409057 7387330
256 8477714 7260792 7179106
257 8497707 7300342 7114159
258 8575308 7361845 7229962
259 8514928 7395506 7172980
260 8525706 7529965 7349280
261 8547480 7485457 7403108
262 8545288 7565893 7280067
263 8642261 7814293 7556608
264 8823212 8090696 7621830
265 8848699 8221012 7731905
266 8727099 8053897 7763557
267 8806432 8088019 7591421
268 8826967 8017466 7550702
269 8872902 8070562 7641008
270 8841375 8241478 7690227
271 8803106 8134485 7749232
272 8867229 8111665 7681799
273 8808782 8142776 7612899
274 8689930 7857220 7612619
275 8679239 7743569 7401297
276 8546551 7714915 7529601
277 8533852 7556850 7464137
278 8660886 7648598 7283119
279 8588909 7546691 7364382
280 8717737 7618447 7326610
281 8792424 7853721 7359305
282 8843625 7817849 7412521
283 8874227 7955972 7421011
284 9013827 8160590 7499314
285 9149558 8167545 7507098
286 9129785 8362162 7513195
287 9140374 8359284 7666134
288 9057291 8337913 7675170
289 8966366 8399286 7752518
290 8926059 8338169 7855206
291 8967515 8415650 7774846
292 8772731 8244652 7890526
293 8785917 8182568 7832139
294 8717020 8124113 7736925
295 8701988 8049980 7754017
296 8603155 7981378 7732936
297 8569557 7975184 7688539
298 8608539 7911239 7790880
299 8523528 7910191 7683690
300 8579645 7891901 7695421
301 8634764 7831719 7634736
302 8652779 8019695 7675047
303 8776512 8155295 7758500
304 8978593 8273552 7641470
305 8883234 8275508 7765193
306 8841353 8249819 7825783
307 8950095 8472559 7817852
308 9013786 8488116 7850409
309 8959093 8351452 7842774
310 8839458 8325502 7747853
311 8991204 8176921 7608478
312 9075594 8260778 7555343
313 8929155 8396941 7802655
314 8804508 8195827 7833903
315 8629894 8090573 7738340
316 8525535 7835390 7714949
317 8507425 7526262 7468174
318 8683058 7794813 7391743
319 8847501 7925939 7537046
320 8840283 8102099 7619058
321 8896259 8303524 7753843
322 9057889 8274677 7702992
323 8921899 8370472 7795050
324 8952147 8524084 7974917
325 8978685 8482071 7866560
326 8967500 8454853 7789579
327 9173295 8573780 7824747
328 9206880 8728204 7871903
329 9111468 8599485 7889875
330 9169999 8455621 7736636
331 9054202 8526778 7735277
332 8986872 8332977 7773000
333 9015939 8237184 7590662
334 9055849 8109650 7383193
335 8988379 7955366 7468419
336 8880169 7973353 7418257
337 8825293 7834838 7366759
338 8833977 7654626 7322387
339 8614187 7543387 7249477
340 8444983 7316433 7292065
341 8451377 7227978 7111788
342 8628188 7434006 7101397
343 8821922 7568828 7185773
344 9114465 8013424 7198632
345 9288796 8236043 7335250
346 9249934 8221334 7430204
347 9342904 8454096 7430003
348 9392357 8423909 7495345
349 9357605 8389605 7440526
350 8970977 8275584 7590971
351 8977352 7985226 7457859
352 9053316 7946538 7207651
353 8877876 7937962 7444319
354 8555972 7580926 7411553
355 8409771 7399084 7287001
356 8270465 7026293 7221164
357 8314030 6917747 6960443
358 8551510 7121897 6937381
359 8540026 7012387 6929788
360 8515523 7067906 6858287
361 8505121 7067723 6984183
362 8697286 7128739 6879630
363 8784837 7319996 6864988
364 8490366 7023680 7031065
365 8424232 7084574 7005649
366 8723297 7523359 7171644
367 8988588 7775178 7195927
368 9005166 7930761 7221041
369 8751631 7709715 7349667
370 8758150 7755092 7357721
371 8921271 7870088 7232261
372 8841994 7788417 7401044
373 9053506 7843047 7144399
374 9174428 7733153 6939268
375 8906716 7166670 6722100
376 8424472 6805813 6698763
377 8340731 6602868 6664599
378 8593123 6897309 6635111
379 8733036 7193776 6727107
380 8718059 7039775 6760985
381 8819897 7194671 6718386
382 9042458 7474345 6792072
383 9164983 7526894 6808801
384 9210276 7757540 6853321
385 9183915 7731971 6947563
386 9367897 7724787 6737244
387 9430416 7934584 6809092
388 9418675 8037351 7063031
389 9519064 8283641 7073362
390 9483166 8149764 7060529
391 9234435 7820878 7031689
392 9123418 7751874 6956027
393 8897041 7461912 6974123
394 8657515 7142361 6863778
395 8491612 6890010 6722838
396 8549462 6841295 6750248
397 8662093 7065471 6676001
398 8609509 7036402 6817018
399 8573737 7116615 6991632
400 8521048 7275651 7023385
401 8615250 7191984 7035153
402 8710890 7338971 6958527
403 8747048 7342506 6959124
404 8804967 7306155 6953203
405 8876444 7507502 6878060
406 9016485 7396988 6756122
407 9166084 7437853 6711064
408 9130720 7632361 6826869
409 8989773 7525991 6953895
410 9098378 7565877 6854478
411 9087535 7546571 6806699
412 9003418 7381512 6837065
413 8979220 7422482 6761686
414 8897938 7265264 6778375
415 8893634 7123548 6689135
416 8749987 7039167 6628382
417 8692377 6741487 6523702
418 8616435 6713290 6453639
419 8517662 6688567 6509730
420 8526022 6744072 6655314
421 8582885 6880798 6618209
422 8572386 6803484 6686002
423 8662986 6868898 6625161
424 8785754 7186888 6710356
425 8942622 7295635 6773796
426 9000631 7296796 6624011
427 9118309 7519664 6725256
428 9004538 7386146 6821075
429 8999520 7473019 6774297
430 8962765 7364873 6869491
431 8909091 7090520 6559696
432 8929348 7125832 6500825
433 8866502 6721113 6291760
434 8732175 6365429 5971127
435 8599789 6196336 5955486
436 8534638 6066128 5940392
437 8416100 5913452 5809450
438 8445122 5775542 5780636
439 8684219 5953590 5634017
440 8864115 6196255 5627214
441 8653238 6017404 5864370
442 8674072 6135950 5796892
443 8797321 6310492 5892406
444 8940285 6520917 5985603
445 9058870 6854447 6089513
446 9265848 6989898 6150253
447 9302141 7284020 6365404
448 9335261 7674274 6673585
449 9299923 7821508 6995479
450 9294289 8119423 7128134
451 9262131 8165427 7286986
452 9233431 8255920 7499399
453 9041093 8266139 7543836
454 9015463 8297119 7754281
455 9049187 8529405 7831380
456 9144445 8729062 7915623
457 9375713 8791898 7907773
458 9597471 9172101 7858623
459 9637294 9468056 8195917
460 9718026 9727194 8446419
461 9709539 10074281 8714771
462 9591506 10143248 9006967
463 9475633 10060495 8907790
464 9312865 9744642 8781989
465 9301251 9506248 8657264
466 9239481 9340586 8332355
467 9066792 8891704 8235738
468 8908853 8617856 8118365
469 8759008 8581252 8091210
470 8689404 8303079 8059207
471 8526363 8138507 7973374
472 8074060 7873475 8176428
473 7582030 7582515 8449697
474 7233366 7473228 8495004
475 7153341 7370365 8541938
476 7323634 7372224 8429404
477 7320311 7471508 8434381
478 7509544 7339852 8265790
479 7538486 7108673 7946860
480 7572759 7064893 7878153
481 7743626 7047382 7780061
482 7905788 7319516 7729232
483 8035225 7525877 7866297
484 8369018 7778521 7780648
485 8498928 8019208 7813951
486 8600874 8177443 8034455
487 8722629 8346958 7965349
488 8724081 8447307 8123115
489 8799924 8533489 8152970
490 8789957 8546430 8021855
491 8839340 8423010 7993457
492 8766001 8232116 7896751
493 8770984 8212033 7783310
494 8806282 8016714 7618129
495 8677052 7785851 7475464
496 8618822 7599277 7355749
497 8682698 7446968 7164595
498 8794482 7530989 7015857
499 8863549 7475335 7053524
500 8885695 7443164 6937056
501 8852386 7407684 6879173
502 8933771 7274961 6780767
503 8981198 7319172 6707677
504 8982423 7366982 6762728
505 9199424 7573109 6799466
506 9343511 7830058 6796716
507 9188928 7689157 6908853
508 9305105 7751558 6824120
509 9360407 7814065 6808790
510 9102978 7458999 6846878
511 9107734 7459538 6718774
512 8959955 7310488 6701812
513 8900109 7122583 6692625
514 8755259 7018282 6563661
515 8640160 6731778 6563240
516 8590813 6617024 6406480
517 8649725 6684244 6274108
518 8677468 6560174 6330263
519 8718521 6585220 6226462
520 8564089 6506436 6301393
521 8559338 6474521 6344748
522 8582000 6661504 6306879
523 8706265 6641551 6355087
524 8665431 6579892 6238812
525 8767457 6643921 6195322
526 8892176 6710528 6305915
527 9026836 7003521 6328802
528 9037872 7021137 6373677
529 8933921 6904726 6401211
530 8830454 6959528 6476819
531 8905250 7078644 6588418
532 9158916 7172958 6389827
533 9234335 7256647 6339658
534 9228828 7100129 6375644
535 9035893 6894550 6189636
536 9003270 6896366 6259902
537 9114312 6779107 6095599
538 9004810 6847211 6139898
539 9089372 6774594 6120735
540 9219592 6861941 6002163
541 9339682 7100355 6042934
542 9440041 7122065 6144338
543 9374425 7332228 6299331
544 9261778 7449867 6632067
545 9310516 7545505 6634260
546 9317461 7591355 6585826
547 9472965 7616576 6557143
548 9580727 7675322 6449025
549 9603985 7799750 6543364
550 9551424 7634743 6551948
551 9528726 7628628 6396612
552 9484731 7517942 6416594
553 9547007 7368986 6231627
554 9306993 7203118 6203295
555 9231452 7039577 6270998
556 9188175 6968164 6166888
557 9163939 6891520 6104681
558 9180886 6859289 6097334
559 9137365 6888797 6061982
560 9125973 6897899 6216843
561 9258318 7093338 6223905
562 9358080 7248731 6206745
563 9419618 7278958 6315044
564 9643361 7472577 6178509
565 9704482 7703980 6324266
566 9793851 7826560 6441727
567 9929278 7994349 6363791
568 9907393 8007764 6498046
569 9949320 8030877 6477550
570 9828257 8061963 6546700
571 9938679 8089101 6619081
572 9866689 8032032 6500164
573 9742783 7979728 6634166
574 9676215 7792109 6556405
575 9062372 7272027 6524393
576 8821750 6947929 6548804
577 8820980 6698135 6259176
578 8928808 6846130 6216006
579 9037644 6752514 6168211
580 9098698 6871032 6133658
581 9168009 6993838 6207390
582 9223797 6953279 6161492
583 9014849 6882260 6183784
584 9152019 6838023 6170394
585 9362493 7116465 6134188
586 9556383 7431828 6202140
587 9707989 7562113 6359686
588 9671062 7624348 6298676
589 9610941 7503349 6301833
590 9538125 7333117 6272781
591 9617141 7377593 6054184
592 10059098 7514146 5908902
593 10450805 7789578 5697189
594 10504577 7699705 5580063
595 10211326 7190159 5489112
596 9910029 6977845 5395431
597 9672317 6881239 5631013
598 9407301 6800786 5928470
599 8744730 6671085 6259555
600 8322450 6499919 6620837
601 8466425 6530240 6393702
602 8899412 6854018 6250583
603 9146008 6951315 6250636
604 9486190 7434338 6237775
605 9798059 7700232 6278215
606 9954265 7868003 6349259
607 10082814 8107647 6330585
608 10114908 8208871 6495551
609 10121381 8208325 6506084
610 9930097 8255240 6682662
611 9914327 8177144 6713360
612 9890051 8091804 6512149
613 9675991 7940854 6675277
614 9533615 7779903 6651558
615 9344109 7696063 6685045
616 9480787 7756145 6687292
617 9524120 7724634 6565921
618 9609813 7744820 6520458
619 9736018 7715412 6400368
620 9962551 7844417 6203539
621 10017072 7821174 6266484
622 9939336 7868814 6376440
623 10113101 8158467 6337030
624 10347506 8262765 6385476
625 10503482 8413646 6248648
626 10564471 8563198 6328714
627 10609426 8577644 6436265
628 10471185 8614697 6460898
629 10317284 8491969 6605395
630 10158690 8374950 6668482
631 10307174 8572892 6528154
632 10502157 8532599 6449181
633 10423502 8418357 6368434
634 10184852 8227545 6375324
635 10252668 8123082 6344104
636 10156520 8075632 6194347
637 10104152 7946991 6251716
638 10161695 7867884 6130382
639 9998704 7776493 6176390
640 10043657 7736180 6225537
641 10131674 7880456 6065930
642 10182052 7891278 6117143
643 10304822 8039794 6225261
644 10396144 8286623 6158737
645 10442899 8384708 6341813
646 10549158 8432031 6282389
647 10619861 8661013 6333557
648 10710963 8724557 6496623
649 10708293 8896348 6550091
650 10721734 8975603 6651002
651 10590737 8722813 6586665
652 10448052 8761321 6604554
653 10294212 8507604 6648712
654 10284806 8359703 6453472
655 10150894 8232835 6342006
656 10189022 8063148 6368712
657 10142839 8020656 6211350
658 10157044 8036299 6261964
659 10056180 7885153 6248790
660 9937949 7773150 6206354
661 9875130 7692294 6212338
662 9959377 7854812 6283927
663 9952517 7936093 6363223
664 9846126 7848259 6508859
665 9927870 7998440 6452036
666 10013551 8161866 6521756
667 10129115 8160032 6450218
668 10118269 8276692 6464020
669 10194783 8341732 6633142
670 10245767 8406104 6549181
671 10252716 8550385 6633979
672 10117426 8379145 6686199
673 9863284 8174804 6638027
674 9673428 7840248 6555226
675 9504881 7429047 6376479
676 9419351 7417545 6272743
677 9167576 6963278 6250758
678 9220256 6967485 6112590
679 9264868 6984129 6069934
680 9701160 7351465 6145513
681 9777736 7569709 6081272
682 9702768 7491511 6204912
683 9723915 7407144 6128120
684 9841490 7738854 6192154
685 9950708 7870365 6423623
686 9836895 7962253 6476488
687 10155945 8256056 6435248
688 10239458 8234749 6425068
689 10101764 8185211 6388816
690 9965008 8060983 6503810
691 9872799 7905660 6445419
692 9733943 7856695 6390521
693 9721445 7808705 6529314
694 9588134 7568678 6323260
695 9443715 7338597 6207838
696 9485312 7302953 6251781
697 9586797 7340171 6093106
698 9592790 7302043 6128256
699 9509566 7198434 6086581
700 9516720 7302651 6078961
701 9573942 7365579 6271731
702 9503832 7467637 6326491
703 9406388 7526545 6443076
704 9504771 7565477 6533608
705 9681166 7800288 6473313
706 9709840 7825085 6532535
707 9767013 7856038 6538249
708 9666763 7899249 6584218
709 9626436 7853946 6674112
710 9638540 7791026 6528076
711 9623024 7773835 6534361
712 9534924 7553078 6536741
713 9422302 7572315 6457962
714 9338059 7411663 6448971
715 9269487 7249022 6377894
716 9182832 7244786 6356087
717 9215013 7049896 6338880
718 9249889 7110716 6178257
719 9150240 7061709 6289192
720 9178745 6961725 6280752
721 9217861 7189193 6293474
722 9349554 7225159 6300794
723 9396978 7259407 6290681
724 9413094 7455666 6362312
725 9364042 7476135 6583857
726 9573736 7586211 6356250
727 9621397 7680434 6436628
728 9592606 7729609 6583040
729 9621432 7910518 6564049
730 9658209 7851425 6583043
731 9609265 7640126 6418531
732 9555723 7566416 6343872
733 9539039 7413837 6371762
734 9411809 7182192 6171756
735 9285229 7111468 6196823
736 9231376 6953010 6173677
737 9327986 6962775 5946368
738 9445375 6968876 5969779
739 9427768 6940839 5909277
740 9472473 7128248 5932024
741 9439067 7019658 6018291
742 9472044 7065584 5897891
743 9364334 7092825 6113097
744 9419828 7130023 6153819
745 9567491 7466225 6220293
746 9619881 7605721 6408582
747 9645071 7535040 6306588
748 9712017 7796914 6385529
749 9776722 7611269 6328101
750 9449565 7301448 6215918
751 9337573 7220754 6286117
752 9542877 7413089 6311630
753 9380592 7377352 6329243
754 9181506 7093730 6371159
755 9108396 6982569 6233173
756 9017455 6904376 6235394
757 8690474 6572161 6417740
758 8355514 6348252 6292867
759 8759096 6363646 5940287
760 9242991 6474846 5678973
761 9557644 6943307 5659484
762 9913120 7208765 5810205
763 9845659 7415558 5956220
764 9617570 7487516 6199215
765 9485117 7320200 6316752
766 9654280 7572580 6228919
767 9740227 7627062 6243465
768 9751664 7440157 6152960
769 9445352 7301029 6158959
770 9231749 7132968 6313139
771 9093723 7066770 6371501
772 9063768 7025695 6315165
773 8851569 6805420 6407284
774 9050958 7062400 6369086
775 8833382 6995093 6562909
776 9086673 6985966 6256806
777 9160029 7088802 6247194
778 9176860 7047155 6333352
779 9261796 7198625 6281447
780 9265690 7335784 6395977
781 9357993 7329922 6448360
782 9404921 7454519 6383037
783 9304598 7339807 6488853
784 9472294 7526094 6451518
785 9527179 7663756 6508567
786 9629251 7821870 6658989
787 9824112 7994933 6520364
788 9896285 7963906 6390930
789 9798864 7847872 6520700
790 9863502 7882610 6307919
791 9795023 7759011 6394064
792 9834648 7771720 6339750
793 9678938 7710580 6371823
794 9521431 7502985 6433234
795 9274957 7381893 6464358
796 9171930 7322122 6501530
797 9184967 7329882 6554840
798 9366342 7541605 6514234
799 9294742 7413430 6523803
800 9419386 7477218 6480539
801 9445270 7567471 6466820
802 9637194 7685900 6550249
803 9660250 7838747 6515292
804 9755578 7965706 6575418
805 9672835 7845207 6705360
806 9677283 8094950 6721198
807 9764623 8169176 6834523
808 9674193 8118535 6866739
809 9624686 8206765 6926750
810 9495239 7913402 6870733
811 9696160 7913903 6587989
812 9717969 7870925 6556855
813 9626644 7757265 6589793
814 9450545 7707210 6546263
815 9376701 7550085 6579892
816 9272030 7495263 6635226
817 9468234 7720254 6523836
818 9556387 7639609 6579079
819 9512349 7644414 6427198
820 9714710 7776890 6429941
821 9479879 7635784 6610204
822 9604688 7715765 6408585
823 9714739 7778995 6505049
824 9690751 7903311 6589714
825 9971791 8286784 6667984
826 9768193 8284125 6937351
827 10035572 8600813 6906163
828 10157048 8574478 6801983
829 9878501 8240990 6840459
830 9757576 7995028 6498054
831 9902808 7796833 6316915
832 9689604 7423843 6113633
833 9615425 7092720 5811294
834 9497112 6810520 5771538
835 9290252 6540899 5620050
836 9028856 6431230 5743234
837 9058587 6446658 5873175
838 9096469 6738928 5922559
839 9324250 6852676 5923256
840 9144938 6911996 6206774
841 9159459 7075789 6220424
842 9336658 7113616 6224344
843 9729082 7539783 6134956
844 9881113 7736143 6203233
845 10005038 7815369 6284877
846 10026836 7963909 6269260
847 10113231 7935950 6296426
848 10059449 7873213 6150496
849 10055820 7844965 6095157
850 10019698 7584073 6073099
851 9935530 7498982 5912071
852 9749561 7187245 5786632
853 9709552 7008366 5739275
854 9546663 6982909 5796895
855 8993432 6633534 6118870
856 8706345 6304456 5959212
857 8370982 6020886 6013244
858 8200932 5939141 6211327
859 8173628 6026116 6180819
860 8618076 6362174 6088387
861 9062732 6628393 5972802
862 9282055 6934972 5918180
863 9518351 7036260 5954967
864 9742233 7216244 5849534
865 9839230 7446974 6004550
866 10043042 7530756 5915993
867 9987419 7538109 5911020
868 10055469 7616232 6001834
869 9975683 7663026 6095538
870 10089993 7762293 5952699
871 10113768 7585147 5992640
872 9740016 7469914 6048370
873 9707450 7427893 6113595
874 9694747 7331414 6127691
875 9503906 7219704 6022364
876 9363275 6986225 6025279
877 9332531 6762490 5872067
878 9354444 6838519 5818747
879 9355386 6703217 5805243
880 9398230 6752116 5739478
881 9348964 6704315 5731836
882 9400266 6663331 5715155
883 9458313 6788281 5643030
884 9406611 6871968 5864490
885 9483971 6926021 5891716
886 9459058 7016805 5891127
887 9432564 6970828 6052868
888 9469333 7139459 6011699
889 9459088 7144871 6057174
890 9314846 6899685 6027905
891 9453220 7018556 5905592
892 9233306 6896322 6127496
893 9115338 6878245 6138389
894 9338084 6914000 5915298
895 9253607 6660383 5855203
896 9233134 6577256 5739849
897 9143808 6499750 5732659
898 9184496 6368324 5618304
899 9180875 6438419 5545601
900 9241502 6474844 5657575
901 9209542 6474582 5645629
902 9249809 6608828 5701530
903 9363912 6686471 5759855
904 9412795 6880871 5803588
905 9471397 7018797 5910499
906 9742857 7183703 5839885
907 9767271 7290333 5850550
908 9504202 7113214 6126928
909 9325954 7103620 6234340
910 9523768 7279863 6105040
911 9531649 7172170 6176251
912 9616084 7323568 6050374
913 9717172 7149018 5815912
914 9705083 6772160 5576808
915 9284069 6438221 5492215
916 9322463 6498785 5617039
917 9253706 6469304 5709577
918 8582832 6087790 5805580
919 8684180 5957695 5753911
920 8772649 6081454 5577971
921 9012563 6112318 5477234
922 9116228 6071008 5414937
923 9230831 6290802 5339422
924 9427809 6445222 5445525
925 9543978 6520244 5431953
926 9563144 6625977 5385855
927 9645438 6587630 5414794
928 9706500 6714436 5371940
929 9640736 6649519 5412995
930 9319640 6262590 5392762
931 9074262 6042520 5272501
932 9148781 5910206 5173050
933 9337576 5918431 5019747
934 9170269 5815469 4987311
935 9083804 5657007 5058786
936 9124764 5609836 4834899
937 9051946 5527264 4872487
938 9272623 5586381 4812277
939 9302369 5808352 4824109
940 9353810 5909198 4964822
941 9358640 5993578 5039651
942 9322816 6217567 5239718
943 9487450 6377427 5342750
944 9687901 6746743 5437873
945 9703154 7185543 5923557
946 9732074 7459891 6188493
947 9982859 8033517 6365963
948 10107765 8296582 6654769
949 10139969 8641927 6861903
950 10204628 9038162 7136286
951 10332977 9170614 7337732
952 10458388 9506932 7353942
953 10483627 9465929 7342546
954 10519365 9432614 7303976
955 10569209 9469895 7205885
956 10424409 9451571 7480773
957 10342567 9614976 7664950
958 10308311 9744313 7813759
959 9994346 9508428 7986301
960 9743286 9279630 7922420
961 9665592 8944237 7665748
962 9545502 8680105 7597265
963 9502133 8527511 7364368
964 9474520 8231296 7186395
965 9489229 8123642 6999089
966 9452496 8107819 7027145
967 9354974 7992573 7158807
968 9220353 7859437 7025567
969 8895895 7799603 7249457
970 8672650 7565603 7364685
971 8451805 7632760 7488959
972 8329351 7517354 7614227
973 8362194 7478505 7534266
974 8416870 7640166 7550575
975 8428357 7395916 7434300
976 8434077 7171163 7049602
977 8404249 6879675 6851598
978 8485066 6739841 6706470
979 8532467 6716589 6478762
980 8635315 6774661 6514420
981 8804603 6848344 6441032
982 8930101 7003263 6384924
983 9060835 7164005 6593284
984 9178185 7437182 6613218
985 9333750 7699757 6733430
986 9468177 7849447 6843505
987 9544411 8155263 6937555
988 9563582 8146559 6997380
989 9585766 8146498 6925778
990 9373325 7984701 6968271
991 9309672 7904752 7043472
992 9401845 7896894 6806687
993 9303329 7794403 6890730
994 9372907 7714913 6738811
995 9345817 7549801 6469847
996 9334864 7319763 6419266
997 9310873 7156466 6235241
998 9346562 7068618 6036776
999 9319679 6781174 5905251
1000 9364189 6763571 5719947
1001 9377390 6776189 5779323
1002 9392381 6721919 5786130
1003 9443609 6865726 5727157
1004 9613422 6954650 5805322
1005 9744504 7194513 5846118
1006 9697622 7196049 5827593
1007 9760516 7155402 5902125
1008 9767045 7248062 5858176
1009 9658714 7188027 5924521
1010 9615810 7010876 5897427
1011 9714883 7088627 5692041
1012 9598672 6858484 5734244
1013 9310217 6629187 5766849
1014 9111579 6440448 5662582
1015 9147895 6285557 5650847
1016 9168150 6406932 5525291
1017 9146905 6406178 5643654
1018 9210987 6389525 5590113
1019 9312694 6480864 5472585
1020 9225426 6457349 5664177
1021 9262261 6525841 5622320
1022 9372363 6629256 5578850
1023 9264323 6457338 5657752
1024 9436556 6820441 5740192
1025 9526317 7051152 5888277
1026 9545364 7014975 5896845
1027 9734584 7194716 5746557
1028 9941012 7318908 5798647
1029 9964867 7388339 5835833
1030 9948390 7454692 5817190
1031 9853888 7245168 5893096
1032 9808355 7097125 5665795
1033 9652278 7074254 5817898
1034 9557250 6885808 5788342
1035 9629036 6897652 5529317
1036 9601108 6679690 5547615
1037 9470272 6556018 5508502
1038 9345318 6491764 5489725
1039 9199478 6311049 5590862
1040 9298786 6392360 5431055
1041 9234326 6466427 5578562
1042 9275423 6495886 5666338
1043 9675373 6746252 5371615
1044 9794685 6794867 5435021
1045 9827258 6885385 5486734
1046 9858028 7047893 5497675
1047 10199970 7239317 5534153
1048 9991721 7249946 5629435
1049 9723416 7276209 5922384
1050 9740257 7278093 6017278
1051 9995004 7493312 5884199
1052 9593551 7102104 6019331
1053 9597468 7121739 5885183
1054 9689539 7134387 5774749
1055 9627444 6937122 5767015
1056 9555880 6881748 5687116
1057 9332046 6649924 5654440
1058 9450998 6666690 5676625
1059 9397128 6836033 5770926
1060 9514226 6837718 5724568
1061 9777303 6893130 5521163
1062 9897793 7172577 5592517
1063 9963402 7247786 5708532
1064 9852755 7242774 5715802
1065 9875632 7390944 5852511
1066 10008745 7465122 5913586
1067 9947650 7522053 5840066
1068 10041382 7634510 5985760
1069 10030883 7539758 5933780
1070 9975093 7516468 5876943
1071 10033432 7209043 5643414
1072 9938800 7190262 5648125
1073 9969772 7375276 5814719
1074 9604053 6885802 5777302
1075 9614690 6892350 5604803
1076 9520458 6874163 5757371
1077 9803637 6977396 5617735
1078 9468784 6765386 5663667
1079 9350025 6396702 5582459
1080 9325244 6395829 5429539
1081 9225312 6510621 5655560
1082 9398845 6494718 5555091
1083 9432546 6721258 5602133
1084 9671118 7042085 5783262
1085 10021083 7368050 5739967
1086 10008584 7581856 5874620
1087 10091384 7782739 6149631
1088 10196715 7890261 6036428
1089 10172224 7988901 6189999
1090 10273199 7956890 6153244
1091 10274340 8089047 6128309
1092 10167937 7910298 6167909
1093 10160719 7852529 6052621
1094 9995188 7686268 6008248
1095 9833002 7280736 5909804
1096 9728049 7199679 5842260
1097 9567760 7055432 5890987
1098 9506116 6837706 5755309
1099 9524593 6923790 5746134
1100 9545955 7088394 6013648
1101 9724926 7344378 5966048
1102 9979432 7456846 5792236
1103 10170594 7563289 5905995
1104 10088584 7654748 5926967
1105 10207168 7850075 6099175
1106 10174856 7819161 6119764
1107 10404194 7955917 5864051
1108 10460797 7930643 5939182
1109 10301259 7838839 5925081
1110 10042106 7718319 6016209
1111 10117306 7716670 6069236
1112 10344339 7736111 5771235
1113 10264922 7703441 5844100
1114 10113553 7584523 5897401
1115 10080673 7501537 5741316
1116 10014843 7408140 5853835
1117 9955115 7361953 5782350
1118 10223605 7526507 5595640
1119 10299650 7481476 5653296
1120 10534416 7751932 5573188
1121 10321564 7630212 5747677
1122 10207361 7370167 5621646
1123 10502407 7563051 5395892
1124 10545445 7679499 5630811
1125 10720292 7941723 5657447
1126 10630624 8159597 5932104
1127 10415754 8038296 6079644
1128 10365599 8108837 6090332
1129 10543266 8289099 6171459
1130 10341139 8035583 6183369
1131 9998181 7925031 6220436
1132 9959794 7943691 6379733
1133 10280939 8010428 6125475
1134 10170871 7904567 6106899
1135 10060169 7469394 5862133
1136 10109549 7647110 5818715
1137 10089690 7574575 5874802
1138 10132339 7555865 5916793
1139 10061941 7569451 5835411
1140 10209546 7610771 5908817
1141 10236171 7661175 5875141
1142 10339891 7879829 5870737
1143 10490378 7983550 6007591
1144 10358944 8019621 6025442
1145 10315250 8087795 6179615
1146 10369001 8077378 6161361
1147 10420608 8400003 6269132
1148 10524501 8587972 6503400
1149 10723093 8668233 6315273
1150 10696801 8663747 6280067
1151 10710371 8497319 6218538
1152 10568012 8293763 6087579
1153 10549077 8231707 6043564
1154 10594364 8168065 6008439
1155 10507949 8154491 5928435
1156 10254178 7852959 6051862
1157 10195740 7711198 5903788
1158 10260729 7801641 5902210
1159 10177203 7548689 5871229
1160 10155725 7570045 5762419
1161 10143022 7644557 5916913
1162 10269524 7682757 5876285
1163 10267643 7793359 5803621
1164 10477418 7892180 5889155
1165 10437839 8018942 6004913
1166 10189374 7975075 6125246
1167 10095899 7911930 6306879
1168 10206428 8138056 6305460
1169 10294218 8332447 6411701
1170 10335300 8301469 6427487
1171 10248807 8197775 6278321
1172 9932966 7844415 6414125
1173 10043665 7996383 6334676
1174 9951506 7951933 6311457
1175 9795544 7452107 6166538
1176 9602852 7294499 6014253
1177 9669162 7399078 6128926
1178 9836024 7535948 6128140
1179 9946703 7608129 5978696
1180 9914340 7444154 5950419
1181 9971536 7325560 5706747
1182 10081214 7439435 5709306
1183 10178988 7555872 5890207
1184 10142604 7799871 5962450
1185 10124024 7904492 6203593
1186 10008011 7898942 6345496
1187 9994446 8007929 6339969
1188 10140871 8043539 6363957
1189 10095325 8009728 6261700
1190 9996715 7915160 6307867
1191 9818136 7755060 6362879
1192 9807805 7788992 6321835
1193 9820598 7684282 6287202
1194 9812681 7540482 6145569
1195 9905570 7516038 5938326
1196 9821998 7285190 5961489
1197 9728325 7147715 5770195
1198 9701524 7196689 5865205
1199 9552318 7019988 5971021
1200 9439388 7136258 6007024
1201 9617361 7171511 5960015
1202 9717761 7204857 5915906
1203 9597769 7190609 5905489
1204 9552786 7016344 5917868
1205 9565770 7141548 5906075
1206 9643824 7252427 5988360
1207 9764155 7343782 6082791
1208 9861869 7615245 6086458
1209 9918529 7672317 6202000
1210 9810111 7577796 6227035
1211 9410015 7378032 6286367
1212 9191710 7086753 6374652
1213 9267247 7038523 6079098
1214 9265519 7017487 6090616
1215 9216045 6753982 6060941
1216 9257755 6840925 5945106
1217 9230827 6752604 5970668
1218 9255959 6693965 5850056
1219 9222313 6744298 5848671
1220 9116873 6585052 5931160
1221 9321565 6742924 5806321
1222 9360279 6920486 5942057
1223 9341366 6904523 6005296
1224 9492201 7189719 6013912
1225 9619345 7455888 6249877
1226 9751482 7583372 6243907
1227 9716881 7750973 6387878
1228 9624308 7774047 6591010
1229 9790376 7833152 6452416
1230 9916628 7918949 6342364
1231 10003218 7800107 6269399
1232 9883403 7813121 6278720
1233 9656021 7542587 6356381
1234 9577393 7416053 6197688
1235 9352591 7316660 6278193
1236 9174152 7083211 6361440
1237 9155778 7123683 6316756
1238 9574440 7381897 6186390
1239 9906471 7585331 6128227
1240 10172699 7932547 6091678
1241 10219963 7918761 6162025
1242 10146348 7901011 6114577
1243 10115106 7892894 6177611
1244 9945150 7834448 6362395
1245 9980475 7894431 6238160
1246 9841784 7639305 6204409
1247 9839973 7607960 6226478
1248 9817390 7694875 6182183
1249 9923623 7565205 6126107
1250 9839983 7587442 6179523
1251 9928192 7759090 6129729
1252 10109416 7659340 5974175
1253 10444130 7832244 5692723
1254 10529399 7812671 5684325
1255 10383743 7390056 5492430
1256 10139077 7239583 5431310
1257 9822843 6943727 5617986
1258 9410542 6889166 5882512
1259 8711646 6736000 6409985
1260 8430149 6561669 6645332
1261 8610718 6690120 6388651
1262 9066570 7006371 6334517
1263 9549900 7218166 6078536
1264 9908100 7558148 5995663
1265 10111323 7777414 6142912
1266 10294538 7956541 6055360
1267 10484214 8227270 6074700
1268 10437578 8157000 6218442
1269 10279271 8304958 6379604
1270 10078725 8239374 6583284
1271 9875095 7973683 6555789
1272 9756880 7849423 6420685
1273 9690780 7647715 6422351
1274 9721540 7568032 6267564
1275 9562178 7431439 6221998
1276 9680348 7377216 6138708
1277 9795370 7450643 6013634
1278 9850774 7498823 6068887
1279 9652870 7331324 6153010
1280 9627029 7404906 6096746
1281 9587138 7352413 6203069
1282 9564400 7366435 6174882
1283 9590374 7521778 6252557
1284 9654110 7492551 6302083
1285 9856116 7646051 6165618
1286 9845572 7567919 6130083
1287 9756707 7376949 6123502
1288 9654274 7540496 6228718
1289 9715937 7741455 6503977
1290 9681670 7882093 6586340
1291 9747491 7978880 6590389
1292 9759466 7886311 6603540
1293 9774365 7846176 6430699
1294 9652362 7789196 6535860
1295 9432171 7472303 6466436
1296 9404689 7427363 6315044
1297 9304752 7264619 6388520
1298 9377616 7285389 6330942
1299 9311970 7276961 6262662
1300 9466733 7342578 6390984
1301 9511599 7495491 6344959
1302 9614358 7604156 6403123
1303 9733669 7692231 6365956
1304 9658031 7683378 6316200
1305 9673042 7711517 6516804
1306 9512161 7586950 6449060
1307 9905760 7803104 6247996
1308 9921370 7851870 6374902
1309 10021902 8055938 6339952
1310 10042175 8104394 6469604
1311 10136069 8266081 6587785
1312 10053670 8335578 6644868
1313 10125711 8385183 6682913
1314 10221323 8386202 6561855
1315 10092662 8278725 6512085
1316 9909234 8011753 6626777
1317 9541122 7760692 6514291
1318 9556853 7814644 6677402
1319 9347840 7737574 6799478
1320 9476114 7849819 6675205
1321 9490149 7720623 6725417
1322 9460172 7767304 6705118
1323 9614994 8089932 6844139
1324 9882607 8477319 7060372
1325 9967506 8813765 7170914
1326 9913862 8792451 7324176
1327 9795306 8512243 7190185
1328 9839329 8747701 7263226
1329 9775559 8671818 7367947
1330 10001920 8600816 6931374
1331 10235967 8547862 6634770
1332 10370571 8391676 6484620
1333 10326601 8120756 6107634
1334 10195581 7728050 5918967
1335 10374664 7456357 5508466
1336 10358150 7430835 5370523
1337 10392367 7189434 5293700
1338 10286613 7206198 5270665
1339 10183783 7367583 5548071
1340 9897862 7282896 5848193
1341 9653168 7398782 6086801
1342 9435270 7599300 6615279
1343 9124594 7695442 7030388
1344 9148502 7924672 7082088
1345 9122956 7944504 7313310
1346 9067812 7995307 7301421
1347 9191438 8200927 7347695
1348 9639962 8397831 7212962
1349 9815166 8566565 7055909
1350 9853530 8553998 7137967
1351 9979968 8428377 6860959
1352 9850132 8186830 6659527
1353 9627301 7935932 6758273
1354 9495752 7701063 6559017
1355 9451342 7540461 6388353
1356 9631856 7474153 6315686
1357 9506072 7368151 6180837
1358 9562448 7317020 6185171
1359 9678931 7318654 6077977
1360 9780301 7442285 5994814
1361 9734331 7430974 6191417
1362 9711027 7542257 6206420
1363 9769933 7674807 6284113
1364 9598231 7493052 6398815
1365 9559205 7606716 6340240
1366 9567815 7600417 6448543
1367 9645084 7653012 6425157
1368 9807469 7926043 6414445
1369 10029886 8098368 6523227
1370 10209712 8329626 6476998
1371 10257436 8428435 6558015
1372 10078022 8319993 6714793
1373 10061540 8303313 6589984
1374 10266877 8348906 6535138
1375 10165829 8049083 6318536
1376 9933197 7920035 6361445
1377 9843138 7454857 6127488
1378 9638279 7213908 5996327
1379 9463008 7167829 6086013
1380 9811941 7411429 6035405
1381 10007468 7566867 5821269
1382 9898622 7460640 5996137
1383 9703800 7291440 6010210
1384 9495555 7234575 6009015
1385 9638218 7245452 6116120
1386 9548118 7283958 6120618
1387 9435098 7405916 6264103
1388 9387395 7478147 6524567
1389 9493961 7587604 6409291
1390 9573015 7500269 6373186
1391 9522187 7544609 6384399
1392 9326972 7489934 6508497
1393 9182608 7263701 6606385
1394 9161852 7377603 6543859
1395 8987492 7080112 6453173
1396 9280036 7286112 6412713
1397 9433462 7600780 6491455
1398 9803684 7545582 6083154
1399 9651768 7290173 6105169
1400 9508031 7196413 6011352
1401 9487513 7093862 6057313
1402 9048258 6900674 6218701
1403 8808947 6902572 6443593
1404 9063872 7258908 6645112
1405 9091608 7425024 6638953
1406 9296612 7600363 6749075
1407 9447176 7791374 6747604
1408 9325312 7797905 6797264
1409 9293211 7854344 7016499
1410 9308394 7838581 6821074
1411 9684124 7988210 6699255
1412 9621767 7843521 6724034
1413 9547681 7714463 6470474
1414 9738545 7614853 6305372
1415 9636377 7409326 6162280
1416 9604296 7393533 6143332
1417 9524005 7233599 6176861
1418 9747001 7262855 5859737
1419 9705296 7201592 5902226
1420 9414905 7102135 6181320
1421 9465736 7298959 6133325
1422 9626944 7328581 6132943
1423 9707525 7536070 6266132
1424 9588554 7815529 6541941
1425 9549625 7772362 6685323
1426 9712745 7916749 6516674
1427 9952567 8075528 6537970
1428 9716656 8017812 6694872
1429 9759853 8116039 6663051
1430 9715417 7908166 6729167
1431 9690258 7825554 6487619
1432 9760014 7803601 6335907
1433 9673944 7543691 6349070
1434 9483137 7484026 6309645
1435 9391855 7343038 6320361
1436 9344188 7121045 6231909
1437 9359066 6936430 5910709
1438 9338313 6773551 5860816
1439 9195298 6520861 5744893
1440 9006431 6597914 5923424
1441 9246551 6450369 5663623
1442 9254992 6349940 5464928
1443 9409419 6601446 5596333
1444 9455343 6574577 5530302
1445 9768717 6855414 5423483
1446 9689501 6701054 5522163
1447 9664848 6697941 5488552
1448 9646089 6857878 5542294
1449 9506402 6765697 5763776
1450 9651314 7147339 5820521
1451 9689978 7189410 5951172
1452 9606434 7079765 5957217
1453 9404315 7195866 6084318
1454 9734760 7505340 6246701
1455 9632580 7725941 6499998
1456 9660222 7934912 6608134
1457 9692099 8131757 6937504
1458 9838158 8587706 7080449
1459 10304954 9077206 7113079
1460 10727557 9534560 7281691
1461 10692771 9938698 7587673
1462 10951659 10158030 7686512
1463 11033252 10298586 7630631
1464 11173279 10515876 7685135
1465 11217894 10795288 8008024
1466 11336717 10995360 7944418
1467 11392873 11371560 8376835
1468 11468083 11539093 8539367
1469 11090573 11522680 8778170
1470 10607367 11225701 9084602
1471 10379831 10876702 8849205
1472 10024524 10450782 8768634
1473 9764967 9832796 8501279
1474 9744449 9352461 7915528
1475 9374241 8791982 7823194
1476 9051048 8434751 7842262
1477 8921479 8273211 7704004
1478 8833979 8115093 7770560
1479 8742725 8130411 7727989
1480 8603701 7900566 7675297
1481 8185380 7541171 7837241
1482 8413078 7943299 7843046
1483 8640338 8162051 7975927
1484 8870000 8222799 7750217
1485 9223322 8672111 7784676
1486 9116095 8487398 7815066
1487 9180594 8298680 7470752
1488 9070079 8273830 7576375
1489 9226572 8386835 7624147
1490 9155333 8380089 7536753
1491 9229338 8320186 7486467
1492 9161697 8176659 7439169
1493 9093649 8217418 7420946
1494 9268704 8310172 7468510
1495 9287440 8340304 7398891
1496 9378069 8394543 7379008
1497 9390427 8228206 7345023
1498 9412597 8202117 7107204
1499 9421039 8019304 7071803
1500 9627044 8017927 6797970
1501 9459645 8057581 6889776
1502 9608781 7982519 6826486
1503 9849776 8010144 6499652
1504 9940791 8049908 6431366
1505 9911761 7989998 6546485
1506 10124375 8249816 6501768
1507 9998325 8138724 6559785
1508 9995369 8205932 6627850
1509 10052590 8368137 6672809
1510 9808893 8196280 6875456
1511 9974510 8172615 6551946
1512 9963215 8169888 6602323
1513 9864315 7995007 6605256
1514 9879122 7947447 6391960
1515 9802429 7687203 6367521
1516 9707929 7515881 6210250
1517 9749973 7425096 6044991
1518 9620808 7264887 6115565
1519 9629202 7108494 5849969
1520 9676005 7131624 5800773
1521 9705174 6997358 5739949
1522 9838005 7213232 5639409
1523 10033093 7293083 5635230
1524 10244383 7422623 5607778
1525 10177284 7750556 5897595
1526 10099544 7769016 6149093
1527 10055912 7868857 6164242
1528 9977699 8010236 6391106
1529 10122474 8071912 6464798
1530 9967688 8106291 6442049
1531 9922879 7969223 6436976
1532 10039151 7858880 6260708
1533 9890651 7849371 6251376
1534 9765874 7625314 6325178
1535 9580560 7399431 6201735
1536 9632551 7431051 6184931
1537 9630791 7441151 6215915
1538 9732597 7457914 6040958
1539 9869868 7462236 6090405
1540 9926379 7436878 5929245
1541 9914870 7535323 5978383
1542 10016257 7532368 6049406
1543 10132578 7638786 5840181
1544 10089161 7752734 6031056
1545 10237587 7890709 6064048
1546 10325854 7980931 5974767
1547 10387515 7910008 5945075
1548 10596586 7910884 5744276
1549 10364504 7935355 5900520
1550 10120692 7696189 6064939
1551 9934563 7713229 6165762
1552 9852050 7824443 6333903
1553 10093141 7952745 6271484
1554 10051765 7849265 6106897
1555 9959656 7790905 6235492
1556 10041048 7785267 6162015
1557 10018427 7835977 6111159
1558 10023907 7593234 6066268
1559 9765833 7617471 6220538
1560 9998642 7727891 6069672
1561 10046677 7589474 6017372
1562 9891254 7670446 6136309
1563 9997700 7860094 6320388
1564 10260894 7945842 6152582
1565 10300889 8346086 6353148
1566 10321060 8320210 6469146
1567 10434143 8369883 6263968
1568 10357266 8511377 6515890
1569 10419570 8493745 6542724
1570 10264617 8396273 6402540
1571 9908972 7969129 6480596
1572 10097795 8011175 6341784
1573 10036064 7960447 6241109
1574 10212520 8020805 6267166
1575 10056593 7727887 6021902
1576 10005161 7688225 6068268
1577 9733745 7454803 6161281
1578 9710176 7621385 6163275
1579 9825007 7552425 6184733
1580 9894776 7673506 6201006
1581 9795828 7896718 6442356
1582 9722812 7760049 6477348
1583 9997631 7877458 6233754
1584 10125162 7925446 6214564
1585 10293447 8043652 6235012
1586 10624244 8407014 6048254
1587 10638046 8467064 6312884
1588 10307746 8354112 6404707
1589 10311398 8383135 6393388
1590 10140729 8204214 6584434
1591 10235289 8281421 6413259
1592 10200520 8336557 6580217
1593 10001094 8184753 6626832
1594 10112110 8226523 6434228
1595 10048486 8001374 6403209
1596 10092455 8129531 6386888
1597 10073040 8134995 6386933
1598 9990779 7985125 6441791
1599 10043350 7995246 6256731
1600 10059257 7980153 6279749
1601 10289946 8022558 6190616
1602 10360294 8136507 6102756
1603 10327484 8162084 6296021
1604 10318643 8342042 6408665
1605 10425971 8549933 6434445
1606 10632602 8624223 6462642
1607 10581398 8672427 6416850
1608 10589746 8778680 6561165
1609 10585377 8781629 6622494
1610 10502657 8831744 6660603
1611 10445836 8781823 6803592
1612 10479302 8820760 6722173
1613 10344206 8713437 6671037
1614 10226014 8448779 6730634
1615 10078899 8412006 6611460
1616 10070626 8270502 6600547
1617 10043135 8040151 6429295
1618 9966466 8012685 6316810
1619 9915147 7885194 6445472
1620 9825306 7879968 6403619
1621 9966408 8005899 6414164
1622 10076093 8173833 6565721
1623 10276924 8478884 6537573
1624 10270230 8449481 6588966
1625 10244563 8495642 6672529
1626 10176797 8670946 6825728
1627 10127059 8575806 6914634
1628 10401394 8840322 6788839
1629 10558877 8997041 6822315
1630 10446361 8817756 6846162
1631 10505345 8905777 6736068
1632 10416828 8706705 6756871
1633 10236447 8491748 6722137
1634 10192305 8552560 6701726
1635 10230433 8309151 6564937
1636 10255598 8387801 6467031
1637 10243932 8309140 6464200
1638 10256662 8312478 6546796
1639 10290743 8447504 6467187
1640 10329464 8461344 6491398
1641 10369110 8340660 6386331
1642 10347489 8488786 6482054
1643 10414902 8587547 6608173
1644 10644617 8845346 6551921
1645 10806678 9155757 6677931
1646 10803839 9121027 6751275
1647 10795689 9279478 6799236
1648 10846555 9420666 6979211
1649 10879633 9400393 6942649
1650 10833752 9388406 6907875
1651 10896984 9469792 7041996
1652 11052168 9619614 6946236
1653 10817140 9455436 7001707
1654 10670141 9143324 6963634
1655 10432579 9017893 6976229
1656 10412988 9049814 7027389
1657 10295507 8715940 6887596
1658 10312653 8794601 6810413
1659 10450349 8748662 6751111
1660 10471618 8795829 6727071
1661 10403151 8750673 6766781
1662 10379628 8757385 6883268
1663 10436850 8920414 6808501
1664 10393120 8824509 6840865
1665 10426278 8799402 6768021
1666 10412374 9003097 6901739
1667 10591886 8941018 6849333
1668 10655233 9117942 6842168
1669 10592723 9327758 7142932
1670 10551884 9268647 7122549
1671 10722342 9378812 6953605
1672 10626868 9255659 7040857
1673 10623879 9107181 6894257
1674 10512136 9213907 7000949
1675 10339221 8906667 7040550
1676 10309970 8936318 6933132
1677 10362699 8973448 6964037
1678 10369123 8850982 6933191
1679 10313150 8841659 6875316
1680 10429840 8858123 6860268
1681 10170855 8498426 6753096
1682 10116374 8575078 6791686
1683 10066120 8409337 6785041
1684 10208157 8660288 6783262
1685 10237252 8837193 6941170
1686 10330919 8659797 6743818
1687 10146329 8571217 6755164
1688 9964642 8589400 7006539
1689 10101881 8858252 7131873
1690 10224400 9180029 7278412
1691 10147089 9203448 7536658
1692 10225651 9357471 7456709
1693 10200077 9332989 7503029
1694 10088183 8997314 7387160
1695 9905023 8750394 7129676
1696 9946956 8560919 7029100
1697 10102458 8422773 6708099
1698 10088816 8393597 6624880
1699 10332746 8372793 6483867
1700 10427931 8485505 6443639
1701 10296373 8424067 6495581
1702 10398649 8516277 6613158
1703 10446512 8718975 6571085
1704 10455810 8753971 6729635
1705 10555803 9055948 6877376
1706 10519786 9040310 6888109
1707 10526209 9000419 6911426
1708 10738885 9152340 6744807
1709 10311428 8771791 6892205
1710 9872476 8339306 6955780
1711 9489705 8363941 7189151
1712 9687729 8639224 7396434
1713 10005141 8728955 7072202
1714 10084560 8662577 6899242
1715 10124784 8237407 6597376
1716 10120382 8264725 6424461
1717 10033902 8109394 6437805
1718 10083247 8174254 6536358
1719 10032774 8314504 6586504
1720 9990615 8241685 6671359
1721 9858176 7957856 6522646
1722 9579585 7941839 6723200
1723 9596336 8124813 6989257
1724 9944113 8576692 6977211
1725 10080098 8579976 6861976
1726 9976118 8305465 6798045
1727 9925256 8443467 6838805
1728 9963304 8520533 7054883
1729 10183599 8753734 6949497
1730 10077674 8717193 6954895
1731 10002725 8563195 7022713
1732 9768841 8329380 6925499
1733 9792578 8380037 6952838
1734 9874726 8501449 7062493
1735 9523718 8249807 7040928
1736 9463365 8074138 7002073
1737 9603714 8078323 6875384
1738 9684169 8198407 6827692
1739 9807992 8324978 7013937
1740 9860106 8415223 6900005
1741 9495282 8063936 6979805
1742 9342011 7885380 7003521
1743 9732220 8289136 6836523
1744 9990639 8426072 6913143
1745 10084458 8564346 6854707
1746 10040045 8688236 6997846
1747 10095228 8837504 7227716
1748 10069518 8926947 7229941
1749 10128852 9022664 7267913
1750 10153474 8953298 7242329
1751 10209443 9111564 7242517
1752 10063425 8922591 7275791
1753 9918935 8681808 7165726
1754 9768695 8530613 7112017
1755 9452080 7991360 7020613
1756 9552831 8129350 6895816
1757 9706102 8354113 7054302
1758 9771485 8199859 6857490
1759 9905342 8412755 6792643
1760 9789054 8380455 7050541
1761 9717298 8407588 7105507
1762 9688033 8336808 6993011
1763 9742065 8300230 7048726
1764 9834557 8509266 7034394
1765 9877003 8543245 7039408
1766 10017542 8607480 7058786
1767 9996232 8751246 7055332
1768 9962757 8694118 7241196
1769 10040774 8872527 7228358
1770 10031731 8964181 7278078
1771 10006413 8861091 7376308
1772 9957798 8920222 7278173
1773 9984524 8876369 7336035
1774 9757061 8665609 7370471
1775 9487207 8371196 7215656
1776 9431752 8057180 7073678
1777 9460412 8012146 6993635
1778 9436124 8097205 7017626
1779 9370109 7922729 7029477
1780 9226358 7820334 6890205
1781 9125679 7692549 6985847
1782 9136438 7820011 7093277
1783 9457815 8152654 7024211
1784 9478525 8264803 7191884
1785 9826263 8704201 7264892
1786 9839810 8896963 7364066
1787 9915183 8998856 7577687
1788 10191504 9417097 7534271
1789 10169291 9555794 7802116
1790 10146205 9584487 7872395
1791 10280165 9822886 7862023
1792 10290869 9812368 8002820
1793 10184237 9670282 7864002
1794 10225142 9637765 7773470
1795 10085798 9281387 7629183
1796 9912628 9212642 7618586
1797 9858906 9061239 7562143
1798 9946539 8941032 7434474
1799 9947696 8949192 7318419
1800 9968068 8864575 7368602
1801 10109017 8780581 7064405
1802 10116364 8879211 7104493
1803 10143938 8949653 7268658
1804 10278616 9252090 7253397
1805 10437512 9439498 7354262
1806 10504710 9432823 7383727
1807 10505280 9603749 7419675
1808 10501361 9594114 7557692
1809 10430601 9604456 7554645
1810 10265185 9537668 7642319
1811 10152654 9414524 7752996
1812 10160789 9424747 7612512
1813 10031792 9369186 7725967
1814 10075740 9315508 7645204
1815 9980039 9177189 7492980
1816 9667192 8830108 7598458
1817 9784878 8938259 7525440
1818 9767695 8899092 7465714
1819 9657174 8679204 7544704
1820 9595592 8801460 7519625
1821 9734890 8902289 7559384
1822 10048320 9146990 7540313
1823 9979805 9365617 7709898
1824 9999871 9361399 7807670
1825 10165609 9629777 7816522
1826 10162142 9676676 7906265
1827 10154523 9672738 8017252
1828 10209881 9834396 7961030
1829 10226496 9805328 7955971
1830 10245818 9716986 7882652
1831 10269664 9922884 7974420
1832 10168767 9786979 8054780
1833 10251633 9763948 7888384
1834 10113922 9683720 7898314
1835 9982300 9384710 7878780
1836 9878143 9274655 7694983
1837 9869198 9170267 7719592
1838 9877722 9046730 7584456
1839 9892390 9137816 7567396
1840 9956614 9023875 7523162
1841 10060434 9006417 7314155
1842 9954858 9043159 7432014
1843 10046444 9073523 7458876
1844 10184878 9276951 7404234
1845 10417981 9449436 7465176
1846 10425595 9428069 7470261
1847 10590881 9706932 7427217
1848 10650309 9715827 7524413
1849 10613874 9771761 7533776
1850 10380062 9639499 7640928
1851 10276115 9514404 7702387
1852 10320897 9460686 7453523
1853 10319329 9270405 7307891
1854 10101709 9063652 7376393
1855 9958189 8946027 7301793
1856 9885892 8821015 7390295
1857 9753443 8827418 7440260
1858 9617344 8741700 7486065
1859 9585614 8525418 7430158
1860 9473598 8505241 7411573
1861 9447760 8389757 7377647
1862 9592003 8498796 7305070
1863 9868733 8833997 7277063
1864 10024345 8842422 7317165
1865 10251690 9124567 7223212
1866 10286285 9218424 7256372
1867 10341111 9259678 7350829
1868 10372677 9520819 7463287
1869 10294368 9422558 7579347
1870 10146091 9269638 7576524
1871 10095977 9287068 7513777
1872 10125909 9239788 7518412
1873 10041676 9201755 7506407
1874 9849112 9065971 7566518
1875 9739225 8695332 7432664
1876 9888295 8835472 7284291
1877 10054761 8821165 7172447
1878 9860351 8548311 7159323
1879 9570830 8439742 7173174
1880 9475502 8318863 7322888
1881 9503209 8301924 7111830
1882 9782372 8459495 6998610
1883 10096459 8487793 6871462
1884 10245836 8669726 6729085
1885 10569115 8967423 6806627
1886 10675914 9006734 6765557
1887 10648634 9082171 6811118
1888 10618753 9089063 6975192
1889 10815464 9412278 6937781
1890 10811273 9462905 7077118
1891 10541005 9329538 7254944
1892 9920618 9094863 7541055
1893 9300892 8790541 7930411
1894 8999922 8560012 8001940
1895 9014367 8562944 7860126
1896 9348570 8667404 7763310
1897 9455286 8658152 7588984
1898 9452757 8629026 7527527
1899 9347534 8490153 7601375
1900 9447423 8682987 7549610
1901 9539816 8720303 7566753
1902 9850728 8877107 7443790
1903 10016683 9035023 7373826
1904 10049370 8981300 7378417
1905 10033106 9054707 7402797
1906 9893844 9086964 7539812
1907 10046795 9252673 7708175
1908 10025090 9351416 7629969
1909 9967987 9179669 7612249
1910 9951097 9106649 7596911
1911 9842990 9270684 7718405
1912 9957260 9199754 7673494
1913 9980886 9264058 7628622
1914 9781150 9036632 7626315
1915 9353167 8463464 7549839
1916 9239359 8298435 7396428
1917 9309328 8391332 7516871
1918 9780696 8740411 7329178
1919 10115132 9121977 7289566
1920 10439549 9378554 7390417
1921 10556403 9540859 7255144
1922 10292468 9270339 7347738
1923 10083067 9000684 7393310
1924 9766860 8851972 7388768
1925 9759700 8925825 7602103
1926 9806126 8947897 7569852
1927 9999765 9229453 7488125
1928 10275425 9423377 7580887
1929 10345953 9538099 7561587
1930 10188166 9343336 7578796
1931 10063487 9185332 7575853
1932 10059680 9232125 7526858
1933 9980977 9046988 7498370
1934 9969574 8930142 7399504
1935 9846884 8858537 7326410
1936 9775805 8664239 7401153
1937 9777970 8620941 7187669
1938 9884187 8501096 6975214
1939 9845777 8230931 6827511
1940 9843875 8186221 6644626
1941 10027682 8080934 6495723
1942 10325856 8117242 6155532
1943 10501757 8174945 5991141
1944 10586455 8151166 6048632
1945 10626882 8298956 5981087
1946 10378158 8250389 6324014
1947 10145700 8254018 6576316
1948 10139214 8407530 6579669
1949 10169765 8369697 6643619
1950 10072517 8202178 6585258
1951 9610045 8233255 6980494
1952 9235602 8003082 7268879
1953 8898961 7873513 7284002
1954 9203015 8070926 7273883
1955 9307295 8078571 7219746
1956 9412754 8468114 7369072
1957 9493163 8714052 7682561
1958 9780974 9122187 7715056
1959 10073939 9652289 7919397
1960 10248622 10163510 8361854
1961 10106925 10238298 8498098
1962 9936313 10371338 8772375
1963 10256788 10560905 8718774
1964 10280510 10544282 8535153
1965 10559283 10810110 8684835
1966 10884315 11094245 8520270
1967 11131945 11639234 8823248
1968 11191153 12014514 9311641
1969 11442538 12554247 9478288
1970 11321596 12753258 9813660
1971 10966745 12414496 9903199
1972 10522396 12125494 9940429
1973 10082612 11526145 9864365
1974 10137721 11319945 9566648
1975 9970513 11013110 9380437
1976 9832386 10611827 9265281
1977 9536975 10306197 9097186
1978 9233739 10100258 9282761
1979 8675988 9635246 9427299
1980 8505298 9663473 9449670
1981 8560043 9479904 9362608
1982 8659980 9493310 9146689
1983 9038356 9822840 9100376
1984 9214999 9960554 9154391
1985 9584145 10247800 8926167
1986 9757836 10294396 8882544
1987 9649859 10089905 8897648
1988 9335509 10046394 9039718
1989 8801773 9731766 9359983
1990 8565085 9769452 9569511
1991 8565378 9776954 9536280
1992 8636744 9612357 9473922
1993 8804508 9775965 9296520
1994 8901649 9933355 9433335
1995 8857265 9783575 9335780
1996 8961608 9819700 9143038
1997 9053234 9793548 9137963
1998 9111163 9739312 8995283
1999 9212202 9786851 8918602
2000 9406002 9807547 8840700
2001 9445368 9755596 8648767
2002 9494189 9810890 8686332
2003 9723771 9907403 8633032
2004 9780721 9992210 8471314
2005 9827439 10007059 8648716
2006 9712733 9972466 8606916
2007 9845743 10171187 8648900
2008 9844997 10108188 8735611
2009 9881578 10183681 8608669
2010 9973684 10163880 8580306
2011 10094060 10161233 8471146
2012 9927076 9994461 8408890
2013 9863363 9638737 8249404
2014 9794826 9577113 8166935
2015 9569471 9383901 8091553
2016 9632245 9189681 8000683
2017 9603326 9171819 7826610
2018 9463241 8893102 7870246
2019 9530404 8870024 7754461
2020 9407494 8962682 7848844
2021 9398638 8872374 7960856
2022 9148558 8926149 8148638
2023 9287982 9081469 8159959
2024 9285757 9071602 8272038
2025 9405183 9327327 8220114
2026 9600466 9431238 8256361
2027 9781977 9637008 8313214
2028 9857237 9923085 8374902
2029 9742145 9799982 8529367
2030 9852560 9950406 8468554
2031 9845564 10094381 8542381
2032 9874509 9852207 8394914
2033 9946331 9764506 8144135
2034 9874696 9667180 8170341
2035 9957043 9553588 8008122
2036 9921105 9363623 7761091
2037 9812698 9032818 7666188
2038 9794587 9026163 7588162
2039 9890115 9136850 7575151
2040 9866180 9107989 7718483
2041 9862691 9232905 7670343
2042 9992968 9221154 7598093
2043 10038417 9141426 7514286
2044 9886282 9199060 7594861
2045 10135989 9557510 7921873
2046 9862836 9517528 8036629
2047 9838709 9621802 8122643
2048 9902603 9661721 8255188
2049 9902128 9843388 8246134
2050 9824387 9801027 8384868
2051 9960573 9952829 8388713
2052 10032114 10066561 8382662
2053 9724257 9897784 8621949
2054 9789541 9818497 8428149
2055 9507992 9502558 8271574
2056 9475102 9261910 8240962
2057 9243775 9145380 8225054
2058 9239027 8989310 8148960
2059 9385279 8929971 7987542
2060 9018061 8905399 8191085
2061 9247638 8878238 8042377
2062 9398494 9002359 7963159
2063 9595124 9293380 8036227
2064 9509074 9201416 8104921
2065 9895472 9565933 8002259
2066 9876353 9629889 8166290
2067 10047817 9683592 8029555
2068 10338349 10047880 8010688
2069 10398714 9985022 8054466
2070 10199759 9947472 8095983
2071 10186167 10032994 8202969
2072 10183238 9971291 8217084
2073 10130114 9854958 7989157
2074 10092934 9855234 8179245
2075 9878872 9455451 8014334
2076 9674579 9430953 8058409
2077 9913432 9523043 8032558
2078 10071409 9613417 7903091
2079 10139775 9688271 7866404
2080 10131815 9705040 8008179
2081 9896527 9724403 8128276
2082 9862034 9604925 8161698
2083 10041085 9672312 8044726
2084 9832082 9924104 8426413
2085 9698645 10041179 8824462
2086 9661754 10105337 8769321
2087 9710672 10195745 8789922
2088 9971790 10231010 8676099
2089 10243319 10353622 8395938
2090 10310995 10308839 8437078
2091 10264501 10098591 8256730
2092 10195342 10078515 8181719
2093 10158265 9852226 8183106
2094 10293863 9932813 8015007
2095 10390628 9957669 7884277
2096 10418922 9718548 7768915
2097 10170451 9673658 7792048
2098 10171347 9601345 7839788
2099 10185965 9574921 7840463
2100 10253276 9700697 7773756
2101 10117033 9660227 8052244
2102 10025887 9761253 8112712
2103 10073092 9915549 8171024
2104 10140942 9905457 8224778
2105 10245085 10265780 8319553
2106 10412000 10287974 8281829
2107 10645075 10454644 8218907
2108 10600205 10729745 8438777
2109 10718536 10822643 8571494
2110 10749708 10822948 8419590
2111 10687494 10886251 8554033
2112 10826580 10767679 8386554
2113 10509096 10536319 8344534
2114 10251182 10323569 8498102
2115 10166301 10025151 8261541
2116 10051063 9988137 8309714
2117 9930549 9926944 8405620
2118 10054525 9876631 8179345
2119 10157007 9973140 8185318
2120 10047776 9818040 8210463
2121 10224335 9996102 8030501
2122 10348803 10181911 8243192
2123 10497314 10451864 8340672
2124 10393223 10392853 8326017
2125 10661060 10499216 8277075
2126 10602651 10621637 8341966
2127 10698719 10820597 8506608
2128 10761998 11019748 8724017
2129 10744511 11126980 8677484
2130 10700661 10980953 8708723
2131 10718550 11004413 8640813
2132 10737893 11027749 8614915
2133 10566369 10790276 8675466
2134 10524081 10762369 8585474
2135 10478151 10582394 8459032
2136 10458118 10501937 8453877
2137 10338283 10455505 8400119
2138 10423961 10417314 8412588
2139 10491650 10433532 8370039
2140 10421229 10524973 8452804
2141 10367315 10408820 8505131
2142 10552904 10465044 8265152
2143 10843723 10709846 8243790
2144 10830089 10747045 8342919
2145 10853706 11042878 8499961
2146 10899522 11006052 8566359
2147 10837978 11070090 8543361
2148 10992766 11274138 8608058
2149 10880071 11212125 8785846
2150 10835482 11129840 8635608
2151 10825345 11246648 8750947
2152 10840748 11133891 8752105
2153 10764715 11180344 8706787
2154 10668135 10927134 8665015
2155 10460013 10634632 8550642
2156 10526849 10788398 8549363
2157 10607722 10692307 8569292
2158 10615912 10733733 8451061
2159 10570236 10720968 8536785
2160 10756845 10856700 8560992
2161 10695202 10985119 8613563
2162 10710796 11043495 8779717
2163 10878033 11176942 8694523
2164 10900028 11270681 8665984
2165 10845930 11406641 9046831
2166 10919710 11640182 9083422
2167 11179117 11818856 8975003
2168 11171500 11775838 9072987
2169 10967687 11752177 9071586
2170 10737240 11343433 9029496
2171 10946331 11405888 8825014
2172 10756407 11311702 8855669
2173 10627709 11043496 8883223
2174 10425148 10969916 8829202
2175 10349729 10700352 8720425
2176 10296016 10541598 8709740
2177 10032114 10477529 8736005
2178 10097726 10349820 8648862
2179 10128435 10347790 8638012
2180 10083313 10488693 8792860
2181 10044134 10389895 8805111
2182 10210159 10545904 8654979
2183 10417310 10711707 8676394
2184 10436154 10671589 8662152
2185 10385371 10791258 8723703
2186 10334854 10761591 8881644
2187 10437807 10906354 8882970
2188 10315251 11172762 9166855
2189 10353317 11176503 9269507
2190 10397937 11342462 9283325
2191 10384378 11297382 9300736
2192 10362131 11131906 9144053
2193 10373038 11162608 9090153
2194 10425029 11001315 9001186
2195 10355822 10645167 8630435
2196 10308029 10552860 8554560
2197 10208564 10269277 8521712
2198 10014823 10145296 8429691
2199 9907027 10035358 8526951
2200 9998404 10090520 8532622
2201 10167711 10226821 8316022
2202 10116500 10087934 8395752
2203 9945439 9986509 8443979
2204 9963966 10068812 8427445
2205 10058573 10186399 8541361
2206 10188698 10281663 8446143
2207 9974865 10211342 8574468
2208 10078442 10308443 8635108
2209 10157273 10569322 8716440
2210 10153785 10542719 8849267
2211 10189091 10506842 8647994
2212 10197493 10610323 8726330
2213 10068926 10420108 8807265
2214 10143988 10600575 8834145
2215 10115631 10547851 8824931
2216 9871907 10249353 8823778
2217 9457098 9944998 8826439
2218 9397349 9707586 8697410
2219 9404701 9715287 8646485
2220 9381446 9922267 8821866
2221 9505310 9834520 8751461
2222 9451385 9901274 8761253
2223 9557148 10023252 8858382
2224 9669588 10005885 8705006
2225 9898347 10332385 8726200
2226 9778796 10193585 8905467
2227 9866914 10307734 8798645
2228 10000416 10541385 8877738
2229 10064158 10465372 8871042
2230 10001775 10606268 8853349
2231 9889903 10593954 9071904
2232 9769335 10294084 8950644
2233 9575012 10078109 8812099
2234 9386220 9892133 8936311
2235 9373963 9854938 8835469
2236 9347388 9807626 8724263
2237 9325739 9368926 8504233
2238 9371587 9379564 8276880
2239 9472199 9551645 8408070
2240 9525902 9669241 8543366
2241 9541792 9582595 8362361
2242 9302417 9478642 8594251
2243 9394572 9629768 8587437
2244 9510129 9803021 8562162
2245 9770466 10036414 8728921
2246 9716941 10153599 8730947
2247 9775883 10137226 8715219
2248 9970940 10211370 8683511
2249 10059453 10513047 8741396
2250 9868082 10323988 8867949
2251 9953543 10406687 8790985
2252 10016693 10546675 8836352
2253 9840021 10291589 8964133
2254 9515111 10071532 8874104
2255 9306968 9677374 8768324
2256 9385256 9604488 8661955
2257 9300124 9608116 8611461
2258 9200899 9539296 8790892
2259 9326818 9746458 8748259
2260 9458910 9925329 8753662
2261 9495860 9799041 8763350
2262 9587681 9866888 8552635
2263 9395425 9628363 8543222
2264 9221136 9429399 8607324
2265 9296800 9684462 8680330
2266 9570291 10019051 8867839
2267 9797401 10295566 8855725
2268 9992751 10664286 9062818
2269 9892272 10710462 9303133
2270 9745279 10682281 9253616
2271 9732487 10542096 9175130
2272 9784431 10273280 8911624
2273 9747814 10107938 8632590
2274 9550573 9845815 8743010
2275 9217833 9411587 8551241
2276 8910699 9164822 8606402
2277 8686439 9012964 8807000
2278 8868053 9154815 8583625
2279 8912638 9125999 8595471
2280 8934729 9118097 8605893
2281 9000718 9328805 8584371
2282 9349618 9543121 8639753
2283 9610516 9845144 8619536
2284 9500964 9980548 8780488
2285 9447409 10102681 9099937
2286 9416776 10298778 9148993
2287 9652153 10736697 9439265
2288 9685394 10867966 9561733
2289 9762429 10991095 9509570
2290 9949671 11077879 9557481
2291 9790177 11072367 9618470
2292 9634131 11054045 9706346
2293 9716251 10766248 9507861
2294 9663657 10545003 9197262
2295 9572392 10167681 8985256
2296 9572542 10099440 8924232
2297 9376289 10045612 8990661
2298 9427968 10098169 9102559
2299 9495835 10084041 8949829
2300 9355926 10043260 9002448
2301 9433170 10228639 9234343
2302 9369323 10391087 9358818
2303 9599261 10750050 9509793
2304 10010830 10910929 9328944
2305 10134110 11193819 9399640
2306 10323744 11375708 9529157
2307 10130283 11188408 9433367
2308 9997123 11073345 9328243
2309 9985189 11092167 9592022
2310 9724036 11094764 9671560
2311 9807943 10968314 9467501
2312 9894405 10814331 9353452
2313 9581492 10456998 9184113
2314 9340315 10325106 9396376
2315 9621004 10507074 9206226
2316 9526901 10406231 9205442
2317 9071545 9940822 9285738
2318 9449380 10194120 9027112
2319 9670667 10266264 9050242
2320 9577575 10319239 9183973
2321 9602260 10306442 8988210
2322 9596086 10381432 9197950
2323 9642282 10571802 9287182
2324 9807288 10880834 9354492
2325 10038575 11171179 9618116
2326 9783370 11162847 9737821
2327 9536439 11107138 9964558
2328 9618781 11256890 10084909
2329 9663391 11319813 9958449
2330 9592273 11230753 10095535
2331 9668730 11334370 10036409
2332 9761358 11296599 9846475
2333 9593531 10914934 9801914
2334 9439631 10752175 9590924
2335 9259791 10398317 9482672
2336 9233820 10245906 9463648
2337 9177605 10355297 9453143
2338 9337006 10275813 9355254
2339 9387341 10264812 9215375
2340 9526898 10524293 9303780
2341 9661024 10550607 9334346
2342 9688761 10599094 9231402
2343 9814519 10775899 9338028
2344 9963959 10805954 9253463
2345 10008174 11017319 9296943
2346 10058250 10990948 9325885
2347 10098121 11165262 9423957
2348 9822060 10790453 9308105
2349 9746616 10590643 9356993
2350 9459409 10426344 9324039
2351 9465905 10643693 9537159
2352 9731011 10760020 9412596
2353 9963683 10999711 9312609
2354 9753073 10802780 9469467
2355 9442863 10480792 9398304
2356 9352789 10405123 9367376
2357 9444217 10307836 9310662
2358 9521158 10298047 9081303
2359 9430608 10151083 9111870
2360 9328361 10092177 9165654
2361 9456606 10169363 9007210
2362 9548278 10240230 9137272
2363 9653508 10413256 9153634
2364 9678878 10502780 9164751
2365 9806583 10601647 9291272
2366 9710712 10604539 9152008
2367 9685399 10488529 9254208
2368 9728680 10636144 9327286
2369 9750315 10636450 9200840
2370 9552749 10625963 9551338
2371 9654523 10801337 9497725
2372 9515891 10814761 9608136
2373 9294444 10543745 9697216
2374 9340724 10518115 9445811
2375 9261713 10226702 9352463
2376 9380615 10141174 9135652
2377 9493987 10219251 9003234
2378 9502551 10204496 9197551
2379 9534593 10342119 9153440
2380 9635426 10522177 9202707
2381 9620953 10293300 9097999
2382 9369485 10229997 9147755
2383 9418372 10300125 9295683
2384 9528592 10165187 9014292
2385 9326909 10192751 9143065
2386 9231611 10204884 9446658
2387 9116759 10270644 9502094
2388 9226480 10447886 9593963
2389 9275041 10596032 9735649
2390 9325461 10761444 9765405
2391 9288449 10709558 9786489
2392 9279730 10442934 9527109
2393 9100163 10355087 9566421
2394 9095126 10319120 9627556
2395 9140542 10349281 9536319
2396 9119723 10404610 9604555
2397 9024451 10153918 9543356
2398 9150653 10242629 9359499
2399 9235008 10119044 9248326
2400 9383999 10156409 9200750
2401 9304712 10158478 9131142
2402 9326367 10245426 9358915
2403 9302084 10442885 9465872
2404 9293238 10508239 9519118
2405 9552991 10722214 9582419
2406 9710012 10910684 9478249
2407 9668139 10846417 9564238
2408 9762976 10772775 9386486
2409 9789122 10851817 9355414
2410 9815575 10759928 9341796
2411 9818222 10773150 9340031
2412 9594651 10771464 9536821
2413 9463056 10569176 9525660
2414 9277797 10395271 9400034
2415 9114417 10100019 9403610
2416 9073508 10014306 9375252
2417 8900979 9989059 9389114
2418 8971292 9917234 9395009
2419 9213177 10048007 9174135
2420 9391566 10156561 9059194
2421 9507809 10024063 8977459
2422 9627898 10199085 8858718
2423 9436088 9979670 8940436
2424 9258117 9844902 8966237
2425 9424513 10346556 9159893
2426 9913600 10670238 9197725
2427 9933796 10703751 9141168
2428 9720454 10718774 9322205
2429 9802863 10517411 9142039
2430 9597331 10467324 9222650
2431 9561437 10546682 9385065
2432 9242424 10263156 9470810
2433 8945295 10088032 9453626
2434 8746919 9874510 9522985
2435 8882171 9653783 9134180
2436 8903793 9703514 9107096
2437 8693520 9178758 8956246
2438 8677918 9204946 8808759
2439 8731647 9214001 8880434
2440 9192383 9465736 8652584
2441 9748593 9861231 8391222
2442 9696649 9798070 8502510
2443 9761609 9893463 8408715
2444 9947572 9981249 8353312
2445 10113061 10271719 8564681
2446 10055902 10481398 8697643
2447 9770397 10474044 9099909
2448 9612627 10431258 9231842
2449 9566754 10474125 9197303
2450 9404514 10312601 9333059
2451 9508944 10457338 9225654
2452 9629033 10374540 9040234
2453 9849436 10199759 8705092
2454 9871139 10177040 8600522
2455 9800381 10165909 8762477
2456 10130458 10547677 8828098
2457 10214132 10923779 9027129
2458 10342724 11120280 9232148
2459 10137905 11336464 9545956
2460 9931369 11589138 10010051
2461 9962297 11827805 10292836
2462 10135730 12231378 10333762
2463 10210058 12318060 10500385
2464 10159311 12456589 10722986
2465 10266556 12816574 10809636
2466 10227365 12840863 11048080
2467 10440931 13034649 10938927
2468 10551053 13371491 11160169
2469 10783418 13801508 11447259
2470 10683220 14062643 11684714
2471 10395734 14001569 11987092
2472 10237874 13692205 11898834
2473 9961858 13439486 11749564
2474 9694060 12818046 11512914
2475 9592535 12244442 10971796
2476 9542050 11993465 10765087
2477 9513788 11755499 10707601
2478 9386469 11612738 10532683
2479 8980938 11062121 10507540
2480 8469453 10570186 10533728
2481 7866667 10402531 10822299
2482 7715395 10443068 11108852
2483 7804960 10833469 11325210
2484 7808834 11146662 11650855
2485 8048812 11318484 11676358
2486 8050074 11462082 11617229
2487 8251205 11292726 11442870
2488 8274369 11082297 11151114
2489 8292100 11008651 10971745
2490 8464434 11013637 10937919
2491 8559684 11161648 10903604
2492 8548440 11178936 10981135
2493 8932668 11385775 10834337
2494 9037224 11550674 10697468
2495 8936187 11391371 10884141
2496 8683913 11231793 10858950
2497 8555393 11011779 10807450
2498 8256789 10902270 11041614
2499 8224559 10963075 11008377
2500 8318077 11007788 10993494
2501 8219371 10691569 10947627
2502 8031602 10563476 10816326
2503 8296573 10601386 10749382
2504 8565943 10700189 10498132
2505 9077510 10994122 10187700
2506 9200497 10803342 10003512
2507 9574494 10905902 9620798
2508 9616327 10865504 9578277
2509 9511207 10936126 9902224
2510 9241884 11120566 10142724
2511 9137281 11122694 10396113
2512 9106456 10988280 10247957
2513 8875244 10704909 10098912
2514 9227948 10849602 10008204
2515 9289322 10965792 10022005
2516 9116221 10897714 10138433
2517 8968137 10806637 10175340
2518 9212361 10584774 9586900
2519 9450202 10278027 9222979
2520 9667903 10313107 9016143
2521 9953134 10578497 8904955
2522 10055934 10938828 9260265
2523 10260324 11236778 9288689
2524 10601590 11451236 9172836
2525 10605122 11478386 9368709
2526 10303288 11641622 9606578
2527 10112631 11629516 9940451
2528 9873953 11594358 10074750
2529 9730209 11566749 10179336
2530 9407520 11284695 10312538
2531 9579857 11460538 10236124
2532 9509391 11402769 10241276
2533 9322189 11181224 10299724
2534 9235105 11297639 10300253
2535 9116519 11030585 10332289
2536 9341910 11011600 10050813
2537 9231904 10959580 10059986
2538 9235998 10797848 9992604
2539 9405707 10990237 9858839
2540 9434601 11044179 9967889
2541 9371477 10984115 9995278
2542 9456937 11149520 9944576
2543 9563577 11157375 9983606
2544 9454157 11109271 9993336
2545 9704338 11443954 10051843
2546 9757069 11457940 10117341
2547 9840065 11675909 10091176
2548 9879752 11637538 10130680
2549 9909476 11666366 10141660
2550 9758195 11482021 9986023
2551 9572640 11233514 10051015
2552 9459715 11049395 9927048
2553 9265460 10941190 9956303
2554 9391968 10862972 9913541
2555 9179695 10818572 9961921
2556 9076242 10821705 10110135
2557 9215129 10901580 10136438
2558 8977845 10860700 10126555
2559 9313001 10930869 10035276
2560 9464608 10977966 9832221
2561 9241655 10828697 9877851
2562 9196233 10802310 10022352
2563 9258581 11072993 10103485
2564 9157067 11010327 10224788
2565 9281940 11144523 10245256
2566 9240325 11272101 10245921
2567 9413498 11255618 10247364
2568 9560439 11460458 10240170
2569 9554941 11631931 10361011
2570 9531201 11460367 10397674
2571 9602691 11721203 10374817
2572 9656142 11640502 10365868
2573 9567033 11523425 10363259
2574 9438678 11592813 10416213
2575 9266232 11294436 10456134
2576 9248940 11173085 10270062
2577 9144259 11103111 10247165
2578 9212479 10982534 10156794
2579 9301477 11145864 10138349
2580 9281895 11180335 10294804
2581 9404382 11125618 10164416
2582 9362238 11297043 10191451
2583 9423766 11390735 10392382
2584 9535128 11443738 10248849
2585 9720144 11694893 10289762
2586 9738661 11657483 10311154
2587 9892714 11847448 10194476
2588 9882979 11898513 10394304
2589 9900690 11949788 10398619
2590 9738154 11935497 10483874
2591 9679096 11765460 10453951
2592 9580227 11761946 10446538
2593 9629634 11735116 10436020
2594 9490267 11413985 10339093
2595 9460516 11281877 10131077
2596 9110989 11121143 10400857
2597 8910835 10967473 10468335
2598 8669770 10917423 10480941
2599 8988666 10892023 10302404
2600 9437354 11321375 10236941
2601 9649148 11484834 10161751
2602 9721032 11572085 10309835
2603 9790805 11800484 10316587
2604 9868426 11771648 10285970
2605 10125790 12059362 10308750
2606 10028591 12159774 10431732
2607 10039848 12291967 10679504
2608 10142337 12535928 10724545
2609 10032447 12504188 10802909
2610 9919084 12433173 10922032
2611 9838729 12440238 10908289
2612 9554212 12267741 11017552
2613 9537429 12049480 10867568
2614 9860749 12157773 10583977
2615 9584267 11645332 10459037
2616 9530629 11545918 10339291
2617 9234916 11450104 10551707
2618 9467013 11438841 10413797
2619 9538512 11481226 10175414
2620 9780673 11765451 10368360
2621 10044985 11979456 10334187
2622 9767805 12050453 10615999
2623 9911657 12197835 10731886
2624 10041870 12436491 10771918
2625 9869033 12610038 11032857
2626 9813308 12488723 11110175
2627 9594711 12674501 11336252
2628 9486650 12766032 11647143
2629 9511471 12747266 11636112
2630 9600477 12946715 11570400
2631 9900939 12854115 11373836
2632 9757348 12413348 10937069
2633 9999226 12373460 10663952
2634 10260805 12119902 10298596
2635 9558127 11521325 10306219
2636 9269769 10994514 10061177
2637 9349378 10668638 9709473
2638 9250842 10473631 9487605
2639 9404961 10558014 9571447
2640 9562317 10922277 9715161
2641 9498545 11136602 9978603
2642 9981069 11518957 9975877
2643 10241955 12103573 10126396
2644 10542505 12356742 10189359
2645 10596408 12410588 10205295
2646 10578507 12563650 10248610
2647 10810075 12634634 10230242
2648 10882633 12781194 10296570
2649 10895901 12944360 10374565
2650 10807860 12664734 10332231
2651 10686890 12748090 10299890
2652 10593616 12648968 10441684
2653 10278385 12484108 10592944
2654 10265535 12597649 10618887
2655 10182404 12281229 10491815
2656 10324362 12446117 10450832
2657 10124754 12425902 10612473
2658 10082259 12153518 10502967
2659 9984675 12066165 10356559
2660 9910008 11994798 10458834
2661 10021025 12047988 10432979
2662 10199003 12319975 10392182
2663 10335119 12339622 10428630
2664 10470273 12476403 10314284
2665 10484803 12543380 10369894
2666 10586019 12721464 10548303
2667 10594763 12794062 10540684
2668 10483450 12835038 10734282
2669 10507993 12914267 10749229
2670 10551940 13018142 10743946
2671 10696241 13172130 10896579
2672 10747238 12977709 10524197
2673 10527731 12830914 10616477
2674 10301529 12685783 10837455
2675 10106352 12521654 10747299
2676 9985455 12350467 10762316
2677 10036134 12197082 10517252
2678 10124010 12247357 10430098
2679 9879576 11916579 10426801
2680 10076485 11984243 10266926
2681 10119855 11978342 10225252
2682 10154796 11902833 10223517
2683 10050450 12065683 10349084
2684 9847863 12154637 10707937
2685 9991169 12463981 10873884
2686 10119500 12673643 10815539
2687 10128108 12710887 11018096
2688 10128595 12904537 11148927
2689 10096755 13038634 11237153
2690 9839499 12714572 11279472
2691 9899548 12771558 11130252
2692 10002324 12823312 11165965
2693 10084120 12740063 11015575
2694 10008080 12627393 10880948
2695 9873975 12307050 10837555
2696 9702916 12156857 10724023
2697 9477988 11912307 10724105
2698 9629462 11916108 10685745
2699 9699990 11917368 10482112
2700 9618639 11765763 10494109
2701 9619767 11764652 10544071
2702 9709073 11995089 10545560
2703 9884394 11958698 10517877
2704 9874885 12086000 10575461
2705 9926784 12407080 10816482
2706 9919921 12401314 10887761
2707 10117350 12729523 10899947
2708 10107517 12851319 11167012
2709 10182767 12833599 10990383
2710 10134943 12818165 10922476
2711 10290740 12969933 11096909
2712 10351679 13004901 10968215
2713 10204178 12828540 10929336
2714 10167358 12663992 10890673
2715 10099270 12496556 10706280
2716 9740881 12057994 10742947
2717 9436871 11729743 10655737
2718 9558174 11973845 10686014
2719 9312387 11644875 10712976
2720 9145995 11517079 10656221
2721 8978429 11248064 10646784
2722 8871033 11066671 10595796
2723 9017297 11207999 10438423
2724 9210208 11311062 10502002
2725 9009516 11262817 10629491
2726 9050677 11590528 10838353
2727 9127379 11752545 10999950
2728 9262554 11892599 10942052
2729 9302051 12093391 11096978
2730 9581595 12089823 10937966
2731 9498880 12166099 10946293
2732 9161371 12027449 11294763
2733 9005680 11915792 11269836
2734 9066468 11902371 11102140
2735 8761492 11446547 11147064
2736 8863033 11452805 10918630
2737 8791317 11574450 11076914
2738 8869479 11502387 11041060
2739 9061666 11591811 10825479
2740 9121734 11866656 11100431
2741 9277268 11841157 10913735
2742 9256614 11822401 10786820
2743 9447047 11778281 10760078
2744 9312545 11753685 10718101
2745 9512472 11979368 10806133
2746 9457039 11882177 10801766
2747 9498573 11952204 10686922
2748 9330964 11878627 10969919
2749 9447365 12012947 10962059
2750 9278746 12046216 11044399
2751 9349287 11981789 11063404
2752 9271047 11985221 11011553
2753 9195344 11918459 11069676
2754 9308267 11867610 10964068
2755 9065297 11650254 10853497
2756 9052691 11524616 10910741
2757 8987433 11342253 10813699
2758 8757389 11273745 10801344
2759 9096897 11357706 10672033
2760 9011603 11451039 10795770
2761 8954302 11586862 10969098
2762 9145781 11711437 10986962
2763 9350781 11899246 10798216
2764 9389968 11913521 10904053
2765 9590874 12094390 10863161
2766 9542092 12149465 10865170
2767 9517893 12073738 10957165
2768 9629535 12270184 10918115
2769 9464700 12203143 11036215
2770 9204417 11919698 11081839
2771 9307633 12080736 11069477
2772 9294978 11977269 11076384
2773 9199972 11749732 10911016
2774 9121967 11873436 11044608
2775 8923268 11482920 10999122
2776 8807610 11438055 10955632
2777 8739734 11342110 10930253
2778 8721642 11177593 10923945
2779 8601167 11085557 10774540
2780 8791806 11264372 10847504
2781 8846088 11339626 10836042
2782 8899133 11543062 10920645
2783 8974083 11474184 10959963
2784 8898484 11492182 10947424
2785 9055288 11719967 11014017
2786 9100065 11643200 10963663
2787 9254924 11914128 10935991
2788 9363753 12102214 11086773
2789 9444864 12104201 11035731
2790 9529153 12328251 11077444
2791 9372154 12274239 11289298
2792 9389255 12288245 11192122
2793 9292413 12152074 11174423
2794 9117447 11873506 11161881
2795 9209237 11910661 10948924
2796 9240331 11991475 11141049
2797 9181169 11694150 10904941
2798 9139181 11656438 10772270
2799 9073754 11532819 10895066
2800 9132378 11663564 10867241
2801 9088018 11713894 10983466
2802 9089321 11808292 11138311
2803 9232749 12024869 11042711
2804 9319171 12021938 11101832
2805 9370674 12156085 11155628
2806 9217882 12136234 11199761
2807 9253696 12072840 11230827
2808 9327934 12241136 11207529
2809 9253803 12300927 11382529
2810 9119696 12134278 11425180
2811 9057633 12246801 11463066
2812 9025167 12121315 11479884
2813 8967512 12041846 11391269
2814 9070582 12192034 11396708
2815 8921048 11949002 11474513
2816 8804418 11984291 11481003
2817 8832342 12135348 11619661
2818 9003468 12146322 11546940
2819 9021799 12285441 11470132
2820 9083005 12206895 11461399
2821 9081909 11922295 11214210
2822 9167861 12040104 11163790
2823 9236063 12148172 11331312
2824 9387931 12358354 11252714
2825 9592962 12747778 11417357
2826 9632085 12800792 11573151
2827 9585383 12940830 11593180
2828 9510924 12943794 11863270
2829 9535146 12931781 11770517
2830 9546441 12966020 11702066
2831 9382447 12832964 11900351
2832 8980889 12516134 11845037
2833 9122317 12676707 11891322
2834 9382747 12767260 11786991
2835 9086705 12417794 11596116
2836 8932891 12151653 11595702
2837 8798962 11879427 11397849
2838 8796996 11775137 11242228
2839 8530596 11441038 11361893
2840 8585235 11414956 11155279
2841 8618248 11431582 11160907
2842 8725523 11441029 11088066
2843 8910534 11590205 10961218
2844 9022540 11662021 10987257
2845 9225635 11979631 11138170
2846 9282393 12361799 11323158
2847 9432681 12403093 11413992
2848 9369828 12540451 11496800
2849 9213117 12625537 11724394
2850 9212797 12591218 11789696
2851 9325582 12769708 11714415
2852 9421638 12705479 11642886
2853 9396842 12475615 11435251
2854 9295334 12383559 11382155
2855 9129813 12093034 11413377
2856 9116258 12195255 11386106
2857 8951398 11903173 11256817
2858 8951392 11720358 11138475
2859 8972725 11838711 11097364
2860 8880378 11646038 11215229
2861 8985468 11778065 11157634
2862 8972700 11929335 11220842
2863 9050508 11900947 11224992
2864 9076024 11999443 11206362
2865 9342364 12211610 11204915
2866 9237497 11914068 11043962
2867 9538885 12318766 11014491
2868 9444861 12294195 11278855
2869 9267622 12368691 11433967
2870 9278203 12478258 11485507
2871 9339172 12251360 11305842
2872 9165607 12095484 11185830
2873 9015761 11921682 11263722
2874 8899598 11843073 11303639
2875 8601895 11505769 11192026
2876 8394883 11241105 11242701
2877 8642988 11241809 10940222
2878 8571940 11176223 10936741
2879 8464661 10893710 10840363
2880 8290759 10661193 10630999
2881 8442172 10779185 10727662
2882 8856602 11153889 10694329
2883 9174509 11653047 10711069
2884 9287025 11633943 10787597
2885 9528845 12011301 10795291
2886 9502155 12133295 10905800
2887 9262503 12014165 11236342
2888 9021936 11917612 11183104
2889 8756982 11748424 11373400
2890 8885157 11742089 11210989
2891 8999324 12045458 11292725
2892 8950046 11647234 11163786
2893 8708875 11383442 11000602
2894 8724499 11442341 11016871
2895 8630590 11303297 11104895
2896 8727700 11494329 11019350
2897 8766786 11381103 10951229
2898 8422385 10938825 10858058
2899 8433489 10990084 10836424
2900 8670738 11387550 11156215
2901 8472782 11144899 10979510
2902 8554485 11243458 10942972
2903 8622515 11455396 11293411
2904 8562136 11559493 11272768
2905 8932816 11758956 11123444
2906 9280418 11970210 11053300
2907 9292676 12093436 11080915
2908 9254406 12263958 11396027
2909 9164549 12615773 11783296
2910 9099239 12567646 11731237
2911 9251928 12345245 11530659
2912 8870291 12406424 11847486
2913 8841825 12296708 11796652
2914 8950250 11898669 11341293
2915 8881849 11821794 11198808
2916 8903518 11830205 11354885
2917 9170603 11986772 11097691
2918 9050808 11561101 10799146
2919 8980867 11150627 10573820
2920 9210427 11332278 10388886
2921 9046602 11008793 10387500
2922 8807590 10961755 10518265
2923 8565694 11047795 10777385
2924 8694706 11259647 10966649
2925 8822710 11632799 11056691
2926 8952628 11721371 11076163
2927 8839568 11718104 11328281
2928 8910995 12037572 11411226
2929 8598524 11844653 11603570
2930 8976420 12053468 11437729
2931 9148271 12287077 11459850
2932 8842383 11924812 11503872
2933 8621000 11812651 11489682
2934 8777538 11893561 11414857
2935 8879856 11672179 11250443
2936 8865696 11618102 11069922
2937 8825486 11454255 10982122
2938 9103076 11392157 10661847
2939 8968920 11691006 11013053
2940 8883352 11585301 11160646
2941 8883742 11657625 11112038
2942 9054556 11874772 11139206
2943 9082792 11838267 11164874
2944 8967805 11616062 10928825
2945 8934218 11522772 10997863
2946 8988141 11520991 10841549
2947 9057385 11571649 10769947
2948 8920176 11414214 10891745
2949 8939367 11410659 10724078
2950 8972219 11330853 10649593
2951 9012321 11066782 10452900
2952 8979436 11044576 10323670
2953 8769067 10769043 10378732
2954 8678486 10893852 10627799
2955 8385722 11075183 10899611
2956 8619381 11042793 10872578
2957 8608457 11080598 10788424
2958 8373950 11009845 10991416
2959 8360026 11054013 11083535
2960 8524849 11426699 11118491
2961 8720821 11602757 11281501
2962 9053374 12079546 11358495
2963 9136395 12507645 11691143
2964 9297721 12873405 11998214
2965 9646971 13498817 12145710
2966 9625546 13603074 12297442
2967 9756824 13882952 12570882
2968 9637071 14146510 12706243
2969 9692276 14036426 12760469
2970 9691121 14179029 12838571
2971 9668435 14462223 13049926
2972 9677984 14589637 13359672
2973 9572386 14931417 13617914
2974 9471132 15029180 13964624
2975 8925102 14635601 14048440
2976 9039657 14087821 13240796
2977 8600094 13108247 12964884
2978 8306744 12938972 12876653
2979 8356195 12803349 12746256
2980 8114974 12198180 12520029
2981 7721415 11753470 12349398
2982 7372582 11806629 12718487
2983 7523913 11955955 12831250
2984 7412077 11991638 12876836
2985 7444913 12163683 13136515
2986 7303991 12081312 13133831
2987 7303838 12294275 13240445
2988 7747825 12549156 13170337
2989 7802866 12553164 12972507
2990 7854210 12559218 13045427
2991 7842345 12303017 12875635
2992 7748127 12166815 12665048
2993 7797278 12028061 12616983
2994 8079837 12337761 12563596
2995 8368485 12425143 12338437
2996 8569886 12527970 12384456
2997 8628689 12582983 12226884
2998 8447754 12353185 12242831
2999 8329301 12204770 12278905
3000 8461506 12363160 12096810
3001 8314514 12107148 12185419
3002 8416703 12240916 12106155
3003 8463424 12279233 12102133
3004 8724002 12357308 12073306
3005 9061982 12838194 12032599
3006 9243952 13066333 12104047
3007 9244452 13027608 12205245
3008 8998943 13105158 12351534
3009 8890819 13137078 12631362
3010 8729085 12955963 12579054
3011 8900595 13183440 12553269
3012 9068102 12970090 12344408
3013 8944798 12866184 12200328
3014 8873268 12768506 12229651
3015 8680787 12339235 12046408
3016 8627363 12144587 11787588
3017 8639324 11892153 11665678
3018 8691120 11851897 11482087
3019 8700342 11915344 11481583
3020 8734742 11818536 11506690
3021 8640849 11771516 11384026
3022 8684708 11804288 11433953
3023 8727393 11833897 11481601
3024 8865174 12018843 11404171
3025 9011804 12240264 11631263
3026 8984700 12250493 11593476
3027 9027920 12521708 11748337
3028 9020875 12466037 11898915
3029 8994754 12417151 11779278
3030 8927636 12456314 11849398
3031 9039748 12457818 11785857
3032 9061275 12524361 11746898
3033 9017147 12382596 11755537
3034 8936746 12282951 11730325
3035 8771702 12064217 11526505
3036 8756668 11923425 11590021
3037 8761777 11984060 11487078
3038 8683757 11857108 11540354
3039 8677763 11778979 11508957
3040 8585476 11777718 11476809
3041 8464707 11690760 11580404
3042 8438405 11803754 11680377
3043 8437360 11790131 11597232
3044 8652152 11837791 11537192
3045 9038730 12045707 11308069
3046 9261288 12147267 11193640
3047 9501895 12295586 11184912
3048 9844376 12723089 11125321
3049 10210581 13045170 11178059
3050 10178893 12945621 11165652
3051 9691185 12761793 11416178
3052 8916929 12130239 11664408
3053 8808875 12003577 11461481
3054 8583697 11857921 11601019
3055 8664152 11737502 11424733
3056 8542787 11507907 11250283
3057 8298438 11211740 11277441
3058 8155773 11048003 11262674
3059 8184714 11375628 11464248
3060 8203448 11469161 11721147
3061 8336429 11462225 11462564
3062 8637628 11624460 11258409
3063 8856180 11479655 11023580
3064 8821229 11473397 10951289
3065 8896538 11545184 11007494
3066 8901186 11636006 11118630
3067 8714554 11912354 11479984
3068 8840174 12151161 11701749
3069 9181605 12505715 11551971
3070 9417630 12666628 11556490
3071 9527667 12669044 11550633
3072 9071570 12382113 11608402
3073 8620212 12131289 11914612
3074 8566021 12189226 11961818
3075 8703121 12195146 11766719
3076 9040661 12295682 11667258
3077 9049873 12354842 11527382
3078 9224704 12333928 11428494
3079 9204965 12233865 11432572
3080 9255556 12355385 11327307
3081 9645902 12571618 11285137
3082 9801533 12888533 11394263
3083 9866709 13419970 11826592
3084 9686003 13357161 12079605
3085 9650541 13537343 12176308
3086 9262791 13369460 12449440
3087 9345051 13093506 12188510
3088 9025955 13006671 12251180
3089 8951248 12854701 12300486
3090 8944994 12788764 12140138
3091 8884281 12670560 12018155
3092 9021106 12516224 11926550
3093 8970437 12553382 11898308
3094 8937028 12594283 11970642
3095 8782710 12289302 11882951
3096 8898483 12317325 11672458
3097 8874146 12198461 11718030
3098 8933219 12297701 11667362
3099 8860449 12344578 11731272
3100 8890476 12389081 11889852
3101 9027607 12442736 11644639
3102 9097334 12378628 11554258
3103 9039079 12267926 11641821
3104 9116437 12535907 11684502
3105 9287902 12770574 11931481
3106 9275857 12846227 11913055
3107 9312941 13073860 12037376
3108 9413782 12965535 11943205
3109 9418233 12957817 11846762
3110 9372635 12930844 11893808
3111 9275059 12938887 12043627
3112 9370744 13028607 11907667
3113 8978360 12567514 11959549
3114 9006605 12559290 11898870
3115 8743542 12456805 11919521
3116 8697156 12454232 12153062
3117 8806918 12603046 12078301
3118 8689294 12227240 11845241
3119 8623637 12046956 11816849
3120 8587580 12093785 11672764
3121 9050903 12112484 11463593
3122 9508931 12637186 11460925
3123 9959643 12993023 11301955
3124 9833410 12717610 11354149
3125 9628063 12874104 11489766
3126 9671130 12797915 11437588
3127 10095284 12952062 11203184
3128 10080676 13145473 11378548
3129 9846925 13078640 11696065
3130 9428655 13069999 12070805
3131 8906742 13043190 12429083
3132 8474680 12794863 12786128
3133 7861364 12742392 13139688
3134 8243979 12850015 12918746
3135 8082620 12411042 12710845
3136 8526057 12653818 12365554
3137 9113607 12806169 12039958
3138 9861876 13422014 11860875
3139 10373835 13809113 11742000
3140 10460845 13739570 11664485
3141 10218116 13282571 11361887
3142 9831783 12870968 11373025
3143 9792530 12961217 11565981
3144 10025681 13398900 11667418
3145 9692992 13247343 11986094
3146 9396510 13172993 12155509
3147 9277164 13374890 12388769
3148 9400918 13457238 12448367
3149 9429318 13425473 12275613
3150 9739742 13346887 11869383
3151 10103754 13408012 11691801
3152 10096589 13532835 11685088
3153 10170795 13510479 11726074
3154 10100605 13546055 11763645
3155 9850975 13483615 11962449
3156 9335728 13261596 12407713
3157 8632493 12941178 12657165
3158 7945141 12570395 13086568
3159 7665014 12484965 13212774
3160 7665584 12464048 12993542
3161 7837368 12468053 12948614
3162 8380601 12905865 12802549
3163 8824232 13451527 12870677
3164 9090760 13628921 12891498
3165 9687465 13893034 12440739
3166 10023497 14058952 12328283
3167 10179685 14208520 12372574
3168 10453029 14487678 12270682
3169 10517860 14259823 12128596
3170 10635762 14164399 11848987
3171 10651599 14052226 11654587
3172 10315979 13831830 11931283
3173 10294090 14025629 11988996
3174 10144830 13841758 12123861
3175 9803648 13418513 12024865
3176 9517541 13318560 12080248
3177 9198800 12894057 12126033
3178 9202381 12825856 11930830
3179 9022313 12927910 12197035
3180 8886201 12878877 12387490
3181 8843628 12688427 12088376
3182 8876085 12759649 12243679
3183 8982498 12982309 12380204
3184 9250125 13252636 12306758
3185 9503683 13571399 12442269
3186 9585923 13590428 12273535
3187 9529915 13679052 12409744
3188 9481114 13620596 12499668
3189 9575943 13743631 12371716
3190 9702156 13787714 12402618
3191 9749664 13860834 12514156
3192 9553452 13817410 12503251
3193 9344181 13491125 12553299
3194 9197103 13356095 12480120
3195 8869022 13101072 12502994
3196 8957517 12923796 12419071
3197 8879971 12863047 12203345
3198 8614845 12648963 12371943
3199 8727172 12653387 12346647
3200 8743946 12765229 12247270
3201 8634178 12787881 12509919
3202 8820174 12843934 12344306
3203 8824028 12909845 12371095
3204 8964664 13093897 12477929
3205 9050444 13261709 12466792
3206 9017407 13341302 12574019
3207 9200048 13446249 12610142
3208 9297515 13584931 12526867
3209 9140814 13392798 12662701
3210 8927536 13106813 12477297
3211 8922309 13232430 12588458
3212 8861018 13139997 12661260
3213 8783007 13147902 12588146
3214 8872595 13103598 12586029
3215 8498516 12562345 12422226
3216 8577748 12580752 12268046
3217 8573068 12473882 12235246
3218 8591203 12359476 12057295
3219 8397869 12394845 12267339
3220 8459226 12477929 12431279
3221 8909812 12784643 12150328
3222 9186216 13012645 12148671
3223 9136569 13034355 12240604
3224 9056184 12945210 12139652
3225 9215053 13086313 12302018
3226 9014859 13124003 12499526
3227 8545373 12990332 12651944
3228 8881234 13121136 12674551
3229 9011525 13364051 12621325
3230 8767856 13029579 12550854
3231 8422572 12851661 12826263
3232 8265234 12787636 12740246
3233 8030340 12433982 12746791
3234 8040040 12357473 12651805
3235 8130989 12345913 12447799
3236 8201679 12280044 12495645
3237 8096994 12315634 12464851
3238 8014795 12045279 12329042
3239 8118023 12187396 12475268
3240 8188729 12336042 12369296
3241 8451697 12514004 12444723
3242 8711114 12658659 12232527
3243 8922491 12649326 12021405
3244 8940501 12585313 11995416
3245 8894507 12584407 12023954
3246 8726978 12646642 12263761
3247 8615340 12586486 12351404
3248 8659039 12598694 12149047
3249 8425361 12477325 12411130
3250 8149345 12462080 12610465
3251 8435182 12682943 12477464
3252 8507363 12580847 12450637
3253 8630463 12539911 12167919
3254 8502288 12384083 12216009
3255 8092268 11917987 12199539
3256 7850294 11842180 12236759
3257 7825344 11873108 12417735
3258 7962206 11928702 12288253
3259 8081869 12141693 12311698
3260 8288843 12233126 12346213
3261 8612284 12616562 12282074
3262 8905832 12802877 12239070
3263 9105041 13009556 12307160
3264 9309935 13231198 12199803
3265 9446856 13368665 12291780
3266 9390494 13282720 12236380
3267 9389507 13375549 12225421
3268 9653002 13449048 12194750
3269 9537466 13461113 12217131
3270 9129771 13149066 12340151
3271 9148734 13065914 12309901
3272 8870131 12979171 12364326
3273 8779750 12745206 12371928
3274 8707307 12768968 12379219
3275 8619576 12616144 12273980
3276 8544095 12435938 12275580
3277 8349273 12453841 12363459
3278 8336233 12272177 12204639
3279 8347132 12087616 12089520
3280 8616049 12438704 12081162
3281 8494322 12171154 12078624
3282 8481143 12183100 12043512
3283 8620426 12465111 12108936
3284 8657005 12410111 12161415
3285 8879050 12819899 12166913
3286 8907682 12889307 12324361
3287 8826664 12964767 12468299
3288 8881521 13242809 12677663
3289 8590893 13034925 12822647
3290 8695266 13069186 12596844
3291 8593607 12934058 12650806
3292 8716133 12946333 12593067
3293 8877353 12989291 12331093
3294 8770537 12920239 12472882
3295 8738625 12755639 12381583
3296 8992201 12895468 12169951
3297 8890641 12680048 12144041
3298 8641559 12450121 12134282
3299 8492535 12426941 12184160
3300 8423415 12336903 12249027
3301 8322423 12280865 12234927
3302 8260530 12129863 12152065
3303 8460623 12337479 12189584
3304 8870226 12792061 12183882
3305 8888797 12953961 12460794
3306 8988513 13116629 12430482
3307 9090404 13242096 12408490
3308 9281769 13453995 12566547
3309 9270677 13502932 12424047
3310 9215522 13589620 12776818
3311 8776230 13238440 12764552
3312 8617440 13109592 12763014
3313 8608714 13052171 12870810
3314 8605375 13066260 12744005
3315 8548811 12915730 12633276
3316 8538887 12709412 12617863
3317 8419787 12792292 12614800
3318 8390010 12583162 12504688
3319 8426280 12616231 12501936
3320 8466311 12781903 12567143
3321 8550071 12759409 12610074
3322 8797319 13084570 12590754
3323 8653308 13084214 12720717
3324 8817558 13257907 12807018
3325 8886790 13401645 12758101
3326 9054980 13391507 12686476
3327 8980809 13245248 12623963
3328 9125067 13552253 12634245
3329 9269063 13495600 12640187
3330 9118527 13412905 12574590
3331 8901452 13408715 12839245
3332 8755395 13322170 13035952
3333 8619926 13330481 12905310
3334 8963013 13613947 12965487
3335 8970213 13328073 12724991
3336 8896291 13336011 12691624
3337 9015472 13416739 12769639
3338 8921450 13172022 12558700
3339 8963730 12937871 12297009
3340 8923368 12739332 12293259
3341 8957803 12941260 12205169
3342 9077538 13000907 12312054
3343 8882843 12882974 12322874
3344 9090661 13221288 12298505
3345 9041723 13175605 12539275
3346 9042271 13261874 12481066
3347 9167114 13588156 12682388
3348 9025269 13461733 12822520
3349 8773315 13484609 12912687
3350 8697657 13253014 12953571
3351 8685908 13220784 12893439
3352 8502046 13108002 12832058
3353 8436140 12690582 12667650
3354 8527538 12652488 12351306
3355 8462342 12399434 12219241
3356 8384364 12195572 12211997
3357 8367056 12114284 11973498
3358 8285632 11839262 11902046
3359 8122083 11657151 11886594
3360 8082229 11749102 11920509
3361 8079605 11672167 11957290
3362 8214956 11879042 11951411
3363 8312892 12061759 11983502
3364 8478083 12151750 12042215
3365 8540491 12371213 12087139
3366 8718186 12481539 12122777
3367 8754289 12499276 12121895
3368 8975763 12867851 12089691
3369 8856837 12827648 12393224
3370 8773753 12787953 12257412
3371 8909121 12928458 12285191
3372 8843771 12894774 12471867
3373 8692008 12769670 12311078
3374 8679544 12627600 12246895
3375 8483248 12311062 12160852
3376 8394475 12270997 12119574
3377 8230355 11986834 12199739
3378 8046206 11977925 12193692
3379 8195941 12112637 12199385
3380 8369828 12104190 12135605
3381 8500984 12240155 12002131
3382 8477342 12120031 12000637
3383 8695880 12229372 11878187
3384 8611146 12212382 11865891
3385 8552112 12144009 11995816
3386 8428369 12030668 11892197
3387 8621824 12348097 11987603
3388 8683883 12237472 11956070
3389 8556119 12199139 11844077
3390 8554638 12257541 12062991
3391 8573848 12245574 12034386
3392 8358417 12100613 11982944
3393 8205651 11828577 12007725
3394 8222021 11827361 11894742
3395 8315258 11835644 11748505
3396 8469126 11741280 11675693
3397 8338865 11663234 11593585
3398 8495740 11751436 11577074
3399 8475749 11729771 11600443
3400 8360383 11822870 11683012
3401 8349296 11642354 11676044
3402 8405096 11740586 11609112
3403 8343643 11792942 11786244
3404 8316062 11832728 11904206
3405 8536332 12217642 11949861
3406 8667547 12452991 12080621
3407 8633884 12461681 12225934
3408 8433719 12499806 12304107
3409 8448472 12383431 12328803
3410 8328204 12359205 12285321
3411 8387044 12363279 12278161
3412 8482915 12159712 12067356
3413 8395024 12275898 12122200
3414 8355681 12210637 12199547
3415 8326444 11953777 11931425
3416 8390165 12006147 11853007
3417 8355620 11993945 12002773
3418 8417930 12167707 12013758
3419 8416848 11980479 11885780
3420 8543743 11778165 11596728
3421 8307878 11771999 11682758
3422 8005318 11553800 11918856
3423 8370522 11875558 11822545
3424 8523138 12128617 11829231
3425 8395623 11990904 12045497
3426 8415994 12023203 11857400
3427 8570323 12084016 11821210
3428 8674932 12309475 12042462
3429 8880640 12657579 12034032
3430 8743050 12515581 12155291
3431 8436940 12158549 12088692
3432 8152489 12000486 12114885
3433 7849929 11862914 12409261
3434 7838287 12017759 12432184
3435 8214698 11987511 11978638
3436 8244834 11571614 11688467
3437 8183764 11480998 11551706
3438 8279040 11469975 11533062
3439 8324470 11440770 11456578
3440 8119916 11404202 11540599
3441 8013999 11136007 11535932
3442 7864795 11181354 11600624
3443 8019004 11332110 11550425
3444 8246082 11475635 11628331
3445 8462811 11736606 11538599
3446 8520953 11659484 11469226
3447 8567232 11532592 11299699
3448 8538039 11749641 11488033
3449 8576043 11894498 11717280
3450 8522462 11832703 11599107
3451 8533093 11863318 11661014
3452 8680488 11559968 11317644
3453 8434309 11423516 11241568
3454 8158974 11069750 11292512
3455 8048895 10941888 11190102
3456 8188234 11113151 11151769
3457 8114685 11052899 11343007
3458 8059724 11017514 11179090
3459 8096307 11073448 11268746
3460 8061743 11136472 11463831
3461 8097899 11481357 11609383
3462 8016081 11657816 11980330
3463 8277935 12024551 12079084
3464 8412376 12512540 12368498
3465 8719633 13106954 12796227
3466 8987847 13747606 13079153
3467 9025514 14192548 13449411
3468 9490925 14678629 13597613
3469 9758129 15146349 13673075
3470 9424417 15197481 14125890
3471 9731466 15598835 14196547
3472 9703365 15702209 14245626
3473 9439098 15676632 14606105
3474 9432226 15652230 14551358
3475 9161842 15732833 14889179
3476 8966289 15261565 14676033
3477 8859261 15006275 14339282
3478 8730405 14458182 14127666
3479 8607970 14019764 13697791
3480 8647059 13669526 13246386
3481 8275897 13053378 13144921
3482 8101673 12896465 13001205
3483 8090690 12925068 13126226
3484 7686656 12579856 13292286
3485 7629567 12792991 13406355
3486 7471333 12639227 13525982
3487 7553450 12639199 13426095
3488 7558587 12731868 13415282
3489 7691383 12912708 13627423
3490 7890049 13221506 13588103
3491 7921721 13388838 13767129
3492 7766171 12945024 13538716
3493 7736204 12753247 13238215
3494 7937425 12719219 13152648
3495 7588560 12345351 13027882
3496 7465125 12150614 12966330
3497 7245286 11872264 13005425
3498 7360070 11875963 12779880
3499 7169952 11761201 12965001
3500 7144747 11996741 13222083
3501 7407222 12434572 13256944
3502 7715436 12614941 13226571
3503 8142401 12881116 13027179
3504 8234798 13097557 13141377
3505 8363026 13018816 13069851
3506 8472987 13197402 12949281
3507 8714925 13302625 12858080
3508 8610533 13107220 12886791
3509 8330094 12818225 12749674
3510 8396501 12747012 12703738
3511 8367609 12631430 12581623
3512 8252575 12512784 12497887
3513 8328147 12359213 12393295
3514 8209915 12296682 12352592
3515 8023216 11952841 12255516
3516 8036212 11799057 12159759
3517 7953875 11850762 12145989
3518 8027001 11692375 12009658
3519 7831589 11480012 12000812
3520 7978532 11693778 12008380
3521 8266076 11618689 11757093
3522 8213066 11783137 11827830
3523 8270004 11900739 11935572
3524 8369476 11883479 11876522
3525 8488069 12262411 12011653
3526 8562836 12255636 12059831
3527 8547113 12294855 12044923
3528 8497974 12372098 12125211
3529 8564263 12299388 12114891
3530 8697636 12431394 11956914
3531 8830697 12618358 12110201
3532 8682531 12344999 12038592
3533 8461783 12175947 11911949
3534 8567870 12165160 11947608
3535 8249858 11834186 11906608
3536 8137276 11821110 11923048
3537 8172710 11709456 11922652
3538 8305151 11732838 11713440
3539 8202625 11601429 11756660
3540 8119484 11491603 11721255
3541 7988600 11413676 11663525
3542 8063388 11492624 11792238
3543 7961219 11377863 11761515
3544 7957445 11523766 11798038
3545 8221974 11711685 11874025
3546 8306156 11923041 11878035
3547 8374878 12140538 12013802
3548 8540249 12232391 12106118
3549 8394203 12162288 11962571
3550 8363304 11963147 11976828
3551 8366023 12030996 11976447
3552 8220609 11939650 11984032
3553 8072824 11659436 11999047
3554 8090816 11691932 11842660
3555 8028967 11502270 11814581
3556 7895373 11453619 11976991
3557 8016933 11752033 11963238
3558 8126159 11648729 11888447
3559 8008455 11498694 11815389
3560 8024618 11523859 11750686
3561 8188049 11505378 11718188
3562 8281260 11763258 11695992
3563 8415286 11928997 11824133
3564 8542696 12029208 11856090
3565 8628508 12338888 11932136
3566 8755066 12457044 12100455
3567 8853742 12611162 12088552
3568 8871426 12785663 12173913
3569 8801078 12717129 12315984
3570 8817361 12765820 12221565
3571 8867641 12720162 12133263
3572 8737115 12341431 11981908
3573 8665760 12398230 11944857
3574 8805555 12428879 11969249
3575 8637717 12076125 11806870
3576 8560177 12178202 11826320
3577 8594162 12088091 11882325
3578 8571907 12092079 11778340
3579 8587176 12131282 11834863
3580 8658016 12229036 11985376
3581 8627239 12147867 11742998
3582 8544985 11959644 11772541
3583 8316478 11972529 11959115
3584 8221616 11814158 11846430
3585 8166259 11623461 11856273
3586 7947631 11545670 11918832
3587 7892847 11572959 11987808
3588 7761199 11526563 12145244
3589 7875616 11649858 12008987
3590 8096354 11739043 11994801
3591 8077901 11789358 12049120
3592 8079116 11981182 12127927
3593 8025143 11843339 12209674
3594 8110556 11893560 12042428
3595 8343306 12027687 11943372
3596 8601045 12183769 11952510
3597 8518393 12042871 11752354
3598 8357665 11851991 11823796
3599 8315061 11827524 11828913
3600 8572059 12182288 11814864
3601 8947250 12379590 11799337
3602 9082625 12724954 11942268
3603 9181644 12890056 11954456
3604 9040428 12627887 11941743
3605 9091846 12652819 11762934
3606 9202796 12622970 11786041
3607 9229639 12522766 11638973
3608 9182781 12652709 11761447
3609 8940906 12485017 11948446
3610 8725123 12431250 12055829
3611 8759934 12562706 12114285
3612 8870539 12414925 11936329
3613 9025227 12450202 11670514
3614 9313970 12696987 11719065
3615 9613531 12770590 11489423
3616 9783699 12840889 11263697
3617 9754271 12516241 11141994
3618 9714655 12450842 11011378
3619 9535403 12326864 11079194
3620 9233389 12124489 11274508
3621 8867547 12128625 11517616
3622 8533798 12161246 12009426
3623 8511225 12305984 12131490
3624 8534234 12370189 12057746
3625 8660769 12406918 12138076
3626 8891082 12617774 12033625
3627 9130956 12849511 11966756
3628 9402428 12983520 11944572
3629 9724195 13199027 11701725
3630 9870381 13052357 11566542
3631 10036164 13142882 11452391
3632 9946670 13216917 11582438
3633 9803733 13165980 11726623
3634 9664813 13141578 11768125
3635 9439839 12886442 11764358
3636 9113581 12641513 11970496
3637 8630058 12489133 12136082
3638 8135205 12271298 12504291
3639 7855175 12191078 12652721
3640 7934270 12348730 12613908
3641 8115943 12357072 12623033
3642 8338458 12450844 12380458
3643 8717823 12684998 12179556
3644 9041521 12775483 12082678
3645 9465979 13086916 11800158
3646 9796840 13153189 11673387
3647 9941513 13310760 11741181
3648 9865923 13574610 11937298
3649 9656673 13357454 11991755
3650 9704161 13210302 11835424
3651 9509012 13075683 11878998
3652 9408121 12874956 11916250
3653 9208552 12892964 11922237
3654 8987067 12723469 12104961
3655 8587073 12441747 12233171
3656 8623636 12537124 12151469
3657 8732815 12460993 12141158
3658 8928511 12591168 11964595
3659 9031532 12762927 12011476
3660 9282051 12934744 12057698
3661 9264442 13113987 12083208
3662 9071408 12946639 12184006
3663 9344451 13217687 12231616
3664 9343034 13393350 12246388
3665 9462015 13375151 12311788
3666 9609188 13383221 12043395
3667 9583098 13359814 12079229
3668 9375666 13335237 12279463
3669 9209247 13129923 12160912
3670 9204540 13155726 12265702
3671 9426286 13328418 12237357
3672 9544943 13406759 12098275
3673 9700157 13471691 12203731
3674 9692643 13602057 12255856
3675 9542193 13450675 12206959
3676 9502220 13209802 12077041
3677 9360830 13145177 12081673
3678 9008939 12886041 12168958
3679 8988456 12613756 11977229
3680 8967271 12638942 11921863
3681 9026944 12605737 11876305
3682 9366490 12845371 11776956
3683 9370145 12876959 11805518
3684 9191887 12712243 11904976
3685 9294833 12793028 11752957
3686 9218726 12727824 11833140
3687 9292169 12710695 11781314
3688 9033817 12724781 11922134
3689 8649929 12536055 12224141
3690 8987893 12887208 12145123
3691 9750485 13564336 12027887
3692 10258037 13998319 12136044
3693 10313311 14095966 11997157
3694 10148199 13864571 12032132
3695 9487751 13153233 12057412
3696 9006709 12921771 12191724
3697 8829734 12657879 12211534
3698 8630076 12552703 12226547
3699 8122134 12146214 12312654
3700 7594751 11636136 12436948
3701 7756503 11752299 12224666
3702 7977276 11789766 12134644
3703 8222791 11686012 11836876
3704 8499162 11871828 11568344
3705 8835824 12220400 11689459
3706 9314456 12471590 11434465
3707 9702335 12961320 11520828
3708 9973044 13197003 11661054
3709 9966972 13435229 11675900
3710 9786581 13327897 11879302
3711 9527703 13396157 12231852
3712 9220317 13206668 12235833
3713 9075953 12990593 12341666
3714 8410606 12681574 12649004
3715 8049533 12370162 12550279
3716 8249035 12305127 12406851
3717 8119782 11966756 12126966
3718 8144804 12080740 12197870
3719 8265807 11977615 12140894
3720 8267351 12118808 12074569
3721 8223001 11852553 12008054
3722 8108103 11676021 11896179
3723 8198875 11854862 11922779
3724 8360458 11920051 11946252
3725 8679704 12402057 12019136
3726 8816243 12593873 12169191
3727 8963223 12729959 12131112
3728 8994011 12939304 12175581
3729 8948321 12861621 12309044
3730 8933982 12813407 12190343
3731 8828975 12845563 12298353
3732 8628896 12584719 12353470
3733 8513323 12477869 12179653
3734 8458563 12422272 12302239
3735 8364260 12162587 12123307
3736 8404950 12065438 11909980
3737 8341802 11939452 11997982
3738 8273288 11945281 11937557
3739 8342519 12024587 11947513
3740 8465943 12097357 12004430
3741 8465236 12112733 11900999
3742 8360184 12134110 12093867
3743 8456419 12241415 12118029
3744 8732805 12445958 11940875
3745 8803573 12503223 12048634
3746 8960107 12521563 11841484
3747 8881612 12528098 11948812
3748 8543049 12336266 12254296
3749 8718930 12599589 12132508
3750 8543727 12392436 12168717
3751 8447810 12273262 12206487
3752 7996521 11909049 12177353
3753 7953054 11583693 11973037
3754 8218820 11748783 11834889
3755 8405339 11955875 11771478
3756 8351012 11927108 12003491
3757 8185367 11904401 11997099
3758 8142484 11839383 12032253
3759 8207910 11852334 11972075
3760 8080408 11987984 12116773
3761 8096822 11662852 11953903
3762 8112871 11771289 12079358
3763 8212619 11948555 12000373
3764 8247622 11898179 12044477
3765 8385312 12279141 12155777
3766 8307499 12233327 12230591
3767 8541669 12328571 12106085
3768 8688586 12613788 12156167
3769 8768756 12509896 12128948
3770 8684367 12572391 12185944
3771 8805622 12657461 12121211
3772 8932828 12633544 12078831
3773 8938523 12566152 11881212
3774 8784082 12394009 11948777
3775 8524373 12231636 12090771
3776 8411738 12262813 12087622
3777 8526244 12260631 12027700
3778 8868405 12576221 11980085
3779 8221814 12296281 12395003
3780 7730678 11894665 12482792
3781 7756972 11681842 12159777
3782 7780111 11669875 12182993
3783 7786109 11637682 12213221
3784 7599979 11738001 12310077
3785 7548658 11730653 12538904
3786 7517728 11780473 12548244
3787 7467968 11906403 12661072
3788 7621154 11938759 12763470
3789 7898026 12110798 12426883
3790 8198708 12251836 12320074
3791 8371933 12370019 12370343
3792 8323159 12484509 12362233
3793 8698616 12467727 12129846
3794 9042923 12764970 11993598
3795 8953211 12648044 11942800
3796 8907985 12296143 11797329
3797 8921638 12098384 11421436
3798 8748153 11896208 11407893
3799 8751423 11768704 11388926
3800 8686571 11830424 11354678
3801 8766917 11785241 11389743
3802 8851188 11912623 11370634
3803 8671830 11864529 11491465
3804 8634341 11942868 11720540
3805 8594034 12139504 11846813
3806 8608511 12375195 12028098
3807 8664240 12383614 12047441
3808 8809418 12654067 12049582
3809 8945464 12516362 11882590
3810 8806073 12349152 11905376
3811 8562398 12436568 12123975
3812 8050642 12111233 12444464
3813 7687536 12097305 12682627
3814 7625135 12199778 12818621
3815 8212315 12122746 12251410
3816 8572156 12238010 11889402
3817 8733263 12076374 11678142
3818 8658214 11794905 11449596
3819 8391144 11691901 11541044
3820 8367350 11639508 11642182
3821 8372634 11780334 11621319
3822 8594362 11985148 11693775
3823 8890432 12121113 11592572
3824 8657254 12245594 11798569
3825 8637615 12187581 11939783
3826 8726053 12310833 11878203
3827 8782779 12535804 12001138
3828 8781751 12488068 12130944
3829 8708973 12474012 12019426
3830 8638397 12417941 12105046
3831 8843824 12540589 12070769
3832 8684843 12461668 12009435
3833 8514360 12260026 12100531
3834 8373299 12153171 12051214
3835 8205276 11865405 11904875
3836 8141102 11743080 12008225
3837 8305546 11967748 11931063
3838 8235810 12034491 12120350
3839 8335152 12039044 12069383
3840 8259658 12158590 12145779
3841 8352783 11895818 11908231
3842 8491276 12113771 11940400
3843 8666360 12370748 11967676
3844 8663905 12246610 12000509
3845 8829368 12529704 11992647
3846 8845777 12611455 12093163
3847 8770702 12560743 12145349
3848 9021073 12728182 11868204
3849 9261830 12732853 11901897
3850 9061486 12665757 11915432
3851 8742831 12632042 12108162
3852 8624612 12394936 12148195
3853 8726439 12449509 11983193
3854 8978029 12620885 12015263
3855 8848452 12434684 11891263
3856 8725632 12316177 11826992
3857 8536514 11921759 11750834
3858 8653448 11869687 11484570
3859 8535574 11762917 11481999
3860 8267524 11500594 11616931
3861 8268042 11493429 11497277
3862 8513675 11705105 11545212
3863 8644282 11889860 11604937
3864 8928261 12246906 11535711
3865 9099560 12434217 11700625
3866 8996909 12310418 11605078
3867 8683749 12194201 11806576
3868 8703559 12233678 11944057
3869 8735788 12298906 11806952
3870 8948133 12485277 11863522
3871 8985362 12417495 11769640
3872 8730734 12242003 11726054
3873 8701281 12051606 11716951
3874 8714332 11946513 11519569
3875 8380523 11573008 11480821
3876 8493794 11550033 11428709
3877 8376271 11343008 11274839
3878 8342289 11383647 11423199
3879 8456495 11531731 11403854
3880 8740756 11824370 11269327
3881 8716921 11694994 11385678
3882 8733468 11827290 11347431
3883 8704524 11774926 11333258
3884 8605605 11599480 11402098
3885 8759843 11928576 11431321
3886 8993097 12153573 11455184
3887 8811100 12047586 11593700
3888 8821639 12141770 11540875
3889 8888703 12144703 11620597
3890 8900872 12054335 11453644
3891 8801210 12048507 11528403
3892 8902427 11966378 11442555
3893 8937729 11981296 11309846
3894 8944719 11839827 11173625
3895 8880680 11607071 11038361
3896 8762383 11541401 11002527
3897 8613270 11297790 11070590
3898 8521439 11253028 11008489
3899 8314788 11149704 11109514
3900 8431125 11211772 11179080
3901 8418344 11256582 11077426
3902 8508260 11435688 11234192
3903 8494080 11457969 11363006
3904 8573297 11685682 11354559
3905 8753203 11802690 11454735
3906 8816185 11895757 11317795
3907 9030139 12065865 11272797
3908 9105702 12008350 11337958
3909 9126713 12115599 11201802
3910 8941792 12099707 11519856
3911 8924693 11973482 11438741
3912 9007836 12063243 11264551
3913 8908974 11899228 11387083
3914 8823268 11855845 11338594
3915 8688686 11682849 11279469
3916 8745190 11548292 11190785
3917 8644345 11525045 11155090
3918 8442992 11207318 11090750
3919 8223164 11018246 11150457
3920 8394827 11213195 11042050
3921 8489423 11144436 11028237
3922 8594646 11311172 11016232
3923 8605613 11399443 11030082
3924 8764876 11425480 11020588
3925 8764474 11645021 11107844
3926 8768541 11640673 11182551
3927 8806799 11680040 11225899
3928 8791582 11882477 11328418
3929 8744813 11740006 11352050
3930 8743802 11754312 11335209
3931 8772223 11928459 11451570
3932 8778360 11881809 11502369
3933 8822010 11971535 11402267
3934 8783527 11903018 11480230
3935 8598821 11675296 11394247
3936 8641509 11758368 11367282
3937 8677036 11635519 11368130
3938 8543963 11512621 11287273
3939 8508866 11537434 11296782
3940 8553717 11509632 11384351
3941 8585715 11587511 11243439
3942 8610972 11549670 11224676
3943 8645931 11541964 11156552
3944 8671716 11419632 10950031
3945 8903492 11588674 11019904
3946 8908479 11552097 10941581
3947 8896144 11687567 11027279
3948 8972011 11767956 11178481
3949 8986309 11863486 11078418
3950 9071989 11812209 11047891
3951 9060221 11790805 11036090
3952 8992815 11646768 10889756
3953 8896237 11386951 10885651
3954 8786456 11282863 10816393
3955 8543071 10961481 10693936
3956 8414019 10497211 10492510
3957 8341347 10326347 10228492
3958 8359642 10132660 10127666
3959 8478744 10211498 10097900
3960 8673015 10441959 10011603
3961 8676639 10362967 10090375
3962 8674953 10383297 10065176
3963 8715725 10424805 10015147
3964 8797823 10413352 9967339
3965 9029350 10872947 10093487
3966 8894110 10953685 10385909
3967 9012794 11139788 10455515
3968 8891401 11260036 10618720
3969 8864746 11352768 10873325
3970 9008521 11651661 10957792
3971 9111945 12114954 11295670
3972 9141118 12313128 11592203
3973 9066406 12546742 11733507
3974 9239988 12876257 11989080
3975 9282540 13061350 12126391
3976 9316980 13402405 12322712
3977 9408010 13581468 12567454
3978 9535305 13796139 12518314
3979 9776221 14006712 12518526
3980 9840292 14034434 12565347
3981 9779339 14025836 12502522
3982 9778146 14299504 12852150
3983 9902567 14689347 13124320
3984 9761405 14945860 13401438
3985 9704989 15229513 13884380
3986 9434119 14837669 13649841
3987 9241946 14504598 13512293
3988 9246753 14296507 13444233
3989 9245458 14136287 13120132
3990 9215676 13738828 12871804
3991 8980624 13224844 12564248
3992 8766252 13039584 12494156
3993 8608381 12763450 12539047
3994 8521712 12636669 12365506
3995 7965361 11941467 12253519
3996 7656885 11461384 12148492
3997 7421540 11314917 12176152
3998 7113592 11149235 12391268
3999 7371649 11151978 12143309
4000 7516823 11419125 12145870
4001 7544534 11484753 12310293
4002 7786180 11664567 12142399
4003 8048103 11672941 11936766
4004 7972659 11555298 11981193
4005 8172737 11768901 11891828
4006 8232759 11901416 11972900
4007 8529176 12173782 11981744
4008 8639645 12361362 12015761
4009 8681367 12498949 12185319
4010 8656944 12560483 12228236
4011 8555289 12728294 12386414
4012 8513582 12636768 12489239
4013 8435263 12565933 12341792
4014 8398007 12390892 12309463
4015 8189967 12067929 12206004
4016 8142995 12069344 12153893
4017 8255154 11872354 11968551
4018 8447840 11787872 11606845
4019 8472228 11732365 11534044
4020 8499750 11633755 11525183
4021 8422508 11466680 11307162
4022 8539384 11669116 11466590
4023 8732141 11713117 11329729
4024 8875962 11847927 11213763
4025 8924825 11773965 11267213
4026 8920509 11971872 11335554
4027 8913340 12120471 11494747
4028 9049671 12000830 11345917
4029 8957050 11927230 11191864
